% f=0.70Hz  Gain=5.9026(15.42dB)  Phase=-11.21deg
Time[s]              Vcmd[V]              Vc[V]                Omega[rad/s]
        0.0000000000         0.0000000000         2.5000000000         0.2782494519
        0.0050000000         0.0098952192         2.5000000000         0.0787874792
        0.0100000000         0.0197856532         2.5000000000         0.0787874792
        0.0150000000         0.0296665191         2.5000000000         0.2782494519
        0.0200000000         0.0395330384         2.5000000000         0.4777114246
        0.0250000000         0.0493804400         2.5000000000         0.3447367761
        0.0300000000         0.0592039616         2.5000000000         0.0123001550
        0.0350000000         0.0689988527         2.7185552694         0.1452748034
        0.0400000000         0.0787603765         2.7241171240         0.1452748034
        0.0450000000         0.0884838126         2.7296649985        -0.0541871692
        0.0500000000         0.0981644586         2.7351961460         0.2782494519
        0.0550000000         0.1077976332         2.7407078162         0.2117621277
        0.0600000000         0.1173786778         2.7461972570         0.2117621277
        0.0650000000         0.1269029592         2.7516617157         0.1452748034
        0.0700000000         0.1363658713         2.7570984409         0.0787874792
        0.0750000000         0.1457628382         2.7625046834        -0.0541871692
        0.0800000000         0.1550893154         2.7678776982         0.4112241003
        0.0850000000         0.1643407929         2.7732147456         0.6771733972
        0.0900000000         0.1735127965         2.7785130932         0.8101480457
        0.0950000000         0.1826008909         2.7837700168         0.9431226942
        0.1000000000         0.1916006812         2.7889828029         0.7436607215
        0.1050000000         0.2005078151         2.7941487492         0.6106860730
        0.1100000000         0.2093179851         2.7992651673         1.1425846668
        0.1150000000         0.2180269309         2.8043293834         1.2090719911
        0.1200000000         0.2266304407         2.8093387408         2.3393565029
        0.1250000000         0.2351243541         2.8142906008         2.2063818545
        0.1300000000         0.2435045635         2.8191823447         2.4723311514
        0.1350000000         0.2517670161         2.8240113757         3.1372043936
        0.1400000000         0.2599077165         2.8287751203         4.0015396086
        0.1450000000         0.2679227279         2.8334710300         4.9323621478
        0.1500000000         0.2758081741         2.8380965832         5.3312860931
        0.1550000000         0.2835602420         2.8426492867         5.1983114447
        0.1600000000         0.2911751827         2.8471266777         5.5307480658
        0.1650000000         0.2986493136         2.8515263251         4.8658748235
        0.1700000000         0.3059790204         2.8558458318         4.0015396086
        0.1750000000         0.3131607585         2.8600828358         2.2063818545
        0.1800000000         0.3201910547         2.8642350122         3.0042297452
        0.1850000000         0.3270665095         2.8683000750         2.1398945302
        0.1900000000         0.3337837977         2.8722757788         2.3393565029
        0.1950000000         0.3403396711         2.8761599201         2.0734072060
        0.2000000000         0.3467309592         2.8799503393         2.2728691787
        0.2050000000         0.3529545714         2.8836449225         2.6053057998
        0.2100000000         0.3590074978         2.8872416028         2.0069198818
        0.2150000000         0.3648868114         2.8907383620         2.1398945302
        0.2200000000         0.3705896689         2.8941332324         2.0069198818
        0.2250000000         0.3761133126         2.8974242980         1.8739452333
        0.2300000000         0.3814550712         2.9006096964         2.0734072060
        0.2350000000         0.3866123616         2.9036876203         2.3393565029
        0.2400000000         0.3915826896         2.9066563187         2.0734072060
        0.2450000000         0.3963636517         2.9095140984         2.0069198818
        0.2500000000         0.4009529359         2.9122593257         2.2063818545
        0.2550000000         0.4053483228         2.9148904277         2.2728691787
        0.2600000000         0.4095476868         2.9174058932         2.1398945302
        0.2650000000         0.4135489972         2.9198042745         2.2728691787
        0.2700000000         0.4173503190         2.9220841886         2.6053057998
        0.2750000000         0.4209498139         2.9242443179         2.0734072060
        0.2800000000         0.4243457412         2.9262834121         2.4723311514
        0.2850000000         0.4275364586         2.9282002886         2.4723311514
        0.2900000000         0.4305204232         2.9299938339         2.2728691787
        0.2950000000         0.4332961920         2.9316630045         2.4723311514
        0.3000000000         0.4358624225         2.9332068281         2.4058438271
        0.3050000000         0.4382178739         2.9346244039         2.4058438271
        0.3100000000         0.4403614069         2.9359149038         2.5388184756
        0.3150000000         0.4422919852         2.9370775733         2.2728691787
        0.3200000000         0.4440086749         2.9381117315         2.3393565029
        0.3250000000         0.4455106460         2.9390167727         2.6717931240
        0.3300000000         0.4467971721         2.9397921660         2.3393565029
        0.3350000000         0.4478676310         2.9404374565         2.7382804483
        0.3400000000         0.4487215051         2.9409522652         2.9377424210
        0.3450000000         0.4493583815         2.9413362896         2.3393565029
        0.3500000000         0.4497779522         2.9415893042         2.4723311514
        0.3550000000         0.4499800142         2.9417111602         2.8047677725
        0.3600000000         0.4499644699         2.9417017859         2.8047677725
        0.3650000000         0.4497313268         2.9415611868         2.8047677725
        0.3700000000         0.4492806975         2.9412894456         2.5388184756
        0.3750000000         0.4486128002         2.9408867220         2.7382804483
        0.3800000000         0.4477279576         2.9403532528         2.6053057998
        0.3850000000         0.4466265978         2.9396893512         2.9377424210
        0.3900000000         0.4453092534         2.9388954072         2.7382804483
        0.3950000000         0.4437765613         2.9379718864         2.6717931240
        0.4000000000         0.4420292628         2.9369193306         2.7382804483
        0.4050000000         0.4400682029         2.9357383563         3.0042297452
        0.4100000000         0.4378943299         2.9344296547         2.6053057998
        0.4150000000         0.4355086951         2.9329939911         2.5388184756
        0.4200000000         0.4329124522         2.9314322040         3.0042297452
        0.4250000000         0.4301068567         2.9297452043         2.7382804483
        0.4300000000         0.4270932652         2.9279339747         3.0042297452
        0.4350000000         0.4238731353         2.9259995688         2.8047677725
        0.4400000000         0.4204480241         2.9239431099         2.0069198818
        0.4450000000         0.4168195880         2.9217657903         2.9377424210
        0.4500000000         0.4129895816         2.9194688702         2.9377424210
        0.4550000000         0.4089598571         2.9170536763         2.8712550967
        0.4600000000         0.4047323632         2.9145216012         2.8712550967
        0.4650000000         0.4003091444         2.9118741016         3.2701790421
        0.4700000000         0.3956923396         2.9091126976         2.6053057998
        0.4750000000         0.3908841815         2.9062389710         2.7382804483
        0.4800000000         0.3858869953         2.9032545640         2.8712550967
        0.4850000000         0.3807031976         2.9001611780         3.1372043936
        0.4900000000         0.3753352951         2.8969605723         2.8047677725
        0.4950000000         0.3697858839         2.8936545622         2.8047677725
        0.5000000000         0.3640576475         2.8902450178         2.8047677725
        0.5050000000         0.3581533560         2.8867338624         2.9377424210
        0.5100000000         0.3520758648         2.8831230713         2.5388184756
        0.5150000000         0.3458281127         2.8794146696         2.5388184756
        0.5200000000         0.3394131213         2.8756107309         2.8047677725
        0.5250000000         0.3328339927         2.8717133761         2.9377424210
        0.5300000000         0.3260939086         2.8677247708         2.5388184756
        0.5350000000         0.3191961283         2.8636471247         3.1372043936
        0.5400000000         0.3121439876         2.8594826892         2.4723311514
        0.5450000000         0.3049408969         2.8552337559         2.6053057998
        0.5500000000         0.2975903394         2.8509026551         2.8047677725
        0.5550000000         0.2900958699         2.8464917538         2.4058438271
        0.5600000000         0.2824611126         2.8420034543         2.6717931240
        0.5650000000         0.2746897596         2.8374401922         2.3393565029
        0.5700000000         0.2667855691         2.8328044348         2.5388184756
        0.5750000000         0.2587523634         2.8280986793         2.4723311514
        0.5800000000         0.2505940274         2.8233254515         2.6717931240
        0.5850000000         0.2423145064         2.8184873034         2.2063818545
        0.5900000000         0.2339178042         2.8135868119         2.2728691787
        0.5950000000         0.2254079814         2.8086265772         2.0734072060
        0.6000000000         0.2167891533         2.8036092209         2.0734072060
        0.6050000000         0.2080654880         2.7985373843         2.0069198818
        0.6100000000         0.1992412040         2.7934137267         2.0069198818
        0.6150000000         0.1903205687         2.7882409240         2.0069198818
        0.6200000000         0.1813078961         2.7830216669         1.8074579091
        0.6250000000         0.1722075446         2.7777586591         1.6744832606
        0.6300000000         0.1630239150         2.7724546160         1.6744832606
        0.6350000000         0.1537614486         2.7671122629         1.6744832606
        0.6400000000         0.1444246244         2.7617343334         1.9404325576
        0.6450000000         0.1350179578         2.7563235681         1.6744832606
        0.6500000000         0.1255459977         2.7508827126         1.4750212880
        0.6550000000         0.1160133247         2.7454145165         1.5415086122
        0.6600000000         0.1064245487         2.7399217315         1.4750212880
        0.6650000000         0.0967843067         2.7344071104         1.3420466395
        0.6700000000         0.0870972606         2.7288734050         1.4085339637
        0.6750000000         0.0773680951         2.7233233652         1.1425846668
        0.6800000000         0.0676015151         2.7177597375         0.9431226942
        0.6850000000         0.0578022436         2.5000000000         1.2755593153
        0.6900000000         0.0479750194         2.5000000000         1.2755593153
        0.6950000000         0.0381245950         2.5000000000         0.4112241003
        0.7000000000         0.0282557338         2.5000000000         0.4112241003
        0.7050000000         0.0183732084         2.5000000000         0.6106860730
        0.7100000000         0.0084817979         2.5000000000         0.0123001550
        0.7150000000        -0.0014137144         2.5000000000         0.4777114246
        0.7200000000        -0.0113085429         2.5000000000         0.0787874792
        0.7250000000        -0.0211979028         2.5000000000         0.2782494519
        0.7300000000        -0.0310770116         2.5000000000         0.2782494519
        0.7350000000        -0.0409410918         2.5000000000         0.4112241003
        0.7400000000        -0.0507853732         2.5000000000         0.2117621277
        0.7450000000        -0.0606050953         2.5000000000         0.2782494519
        0.7500000000        -0.0703955093         2.2679639325         0.0787874792
        0.7550000000        -0.0801518806         2.2631133680         0.2782494519
        0.7600000000        -0.0898694912         2.2582742365         0.2117621277
        0.7650000000        -0.0995436418         2.2534489396         0.2117621277
        0.7700000000        -0.1091696539         2.2486398838        -0.1206744935
        0.7750000000        -0.1187428725         2.2438494791        -0.0541871692
        0.7800000000        -0.1282586681         2.2390801381         0.2782494519
        0.7850000000        -0.1377124390         2.2343342748         0.3447367761
        0.7900000000        -0.1470996133         2.2296143027        -0.3201364662
        0.7950000000        -0.1564156516         2.2249226340        -1.7163702749
        0.8000000000        -0.1656560487         2.2202616783        -0.6525730873
        0.8050000000        -0.1748163360         2.2156338409        -0.8520350600
        0.8100000000        -0.1838920836         2.2110415215        -1.1844716811
        0.8150000000        -0.1928789027         2.2064871131        -1.0514970326
        0.8200000000        -0.2017724472         2.2019730002        -1.3174463296
        0.8250000000        -0.2105684164         2.1975015574        -1.1844716811
        0.8300000000        -0.2192625566         2.1930751481        -1.2509590053
        0.8350000000        -0.2278506633         2.1886961230        -1.3839336538
        0.8400000000        -0.2363285835         2.1843668183        -1.7828575991
        0.8450000000        -0.2446922173         2.1800895546        -1.1844716811
        0.8500000000        -0.2529375200         2.1758666348        -1.6498829507
        0.8550000000        -0.2610605045         2.1717003433        -1.2509590053
        0.8600000000        -0.2690572424         2.1675929438        -1.3174463296
        0.8650000000        -0.2769238666         2.1635466779        -1.3839336538
        0.8700000000        -0.2846565729         2.1595637636        -2.2482688687
        0.8750000000        -0.2922516217         2.1556463937        -1.3174463296
        0.8800000000        -0.2997053403         2.1517967341        -1.6498829507
        0.8850000000        -0.3070141241         2.1480169223        -1.7163702749
        0.8900000000        -0.3141744385         2.1443090656        -1.5169083022
        0.8950000000        -0.3211828210         2.1406752399        -1.6498829507
        0.9000000000        -0.3280358823         2.1371174876        -1.6498829507
        0.9050000000        -0.3347303084         2.1336378163        -1.5833956265
        0.9100000000        -0.3412628619         2.1302381972        -1.7163702749
        0.9150000000        -0.3476303837         2.1269205634        -1.3174463296
        0.9200000000        -0.3538297945         2.1236868084        -1.6498829507
        0.9250000000        -0.3598580963         2.1205387846        -1.5833956265
        0.9300000000        -0.3657123740         2.1174783014        -1.4504209780
        0.9350000000        -0.3713897964         2.1145071244        -1.6498829507
        0.9400000000        -0.3768876180         2.1116269730        -2.2482688687
        0.9450000000        -0.3822031801         2.1088395197        -1.9158322476
        0.9500000000        -0.3873339122         2.1061463881        -1.9823195718
        0.9550000000        -0.3922773329         2.1035491517        -2.1817815445
        0.9600000000        -0.3970310519         2.1010493325        -2.7136801383
        0.9650000000        -0.4015927702         2.0986483997        -1.8493449234
        0.9700000000        -0.4059602817         2.0963477681        -1.7828575991
        0.9750000000        -0.4101314745         2.0941487972        -1.9158322476
        0.9800000000        -0.4141043313         2.0920527895        -2.0488068960
        0.9850000000        -0.4178769310         2.0900609897        -2.1817815445
        0.9900000000        -0.4214474490         2.0881745833        -1.9158322476
        0.9950000000        -0.4248141589         2.0863946954        -1.7828575991
        1.0000000000        -0.4279754323         2.0847223900        -2.3812435172
        1.0050000000        -0.4309297407         2.0831586687        -1.9823195718
        1.0100000000        -0.4336756552         2.0817044696        -2.0488068960
        1.0150000000        -0.4362118481         2.0803606668        -2.7801674625
        1.0200000000        -0.4385370928         2.0791280693        -2.1817815445
        1.0250000000        -0.4406502648         2.0780074202        -2.2482688687
        1.0300000000        -0.4425503422         2.0769993960        -2.3147561930
        1.0350000000        -0.4442364063         2.0761046059        -2.6471928141
        1.0400000000        -0.4457076416         2.0753235914        -2.2482688687
        1.0450000000        -0.4469633366         2.0746568256        -2.3147561930
        1.0500000000        -0.4480028841         2.0741047125        -2.1817815445
        1.0550000000        -0.4488257814         2.0736675871        -2.3147561930
        1.0600000000        -0.4494316305         2.0733457146        -2.6471928141
        1.0650000000        -0.4498201384         2.0731392906        -2.3147561930
        1.0700000000        -0.4499911174         2.0730484404        -2.5807054899
        1.0750000000        -0.4499444846         2.0730732192        -2.5142181656
        1.0800000000        -0.4496802627         2.0732136119        -2.3147561930
        1.0850000000        -0.4491985794         2.0734695332        -2.4477308414
        1.0900000000        -0.4484996676         2.0738408278        -2.5142181656
        1.0950000000        -0.4475838654         2.0743272702        -2.5142181656
        1.1000000000        -0.4464516156         2.0749285652        -2.8466547868
        1.1050000000        -0.4451034657         2.0756443483        -2.0488068960
        1.1100000000        -0.4435400678         2.0764741857        -2.4477308414
        1.1150000000        -0.4417621778         2.0774175749        -1.9158322476
        1.1200000000        -0.4397706556         2.0784739455        -2.5142181656
        1.1250000000        -0.4375664642         2.0796426592        -2.1152942203
        1.1300000000        -0.4351506695         2.0809230110        -2.5142181656
        1.1350000000        -0.4325244398         2.0823142293        -1.9823195718
        1.1400000000        -0.4296890451         2.0838154773        -2.6471928141
        1.1450000000        -0.4266458567         2.0854258533        -2.2482688687
        1.1500000000        -0.4233963460         2.0871443917        -2.1817815445
        1.1550000000        -0.4199420847         2.0889700643        -2.2482688687
        1.1600000000        -0.4162847431         2.0909017807        -2.3147561930
        1.1650000000        -0.4124260899         2.0929383896        -2.1817815445
        1.1700000000        -0.4083679910         2.0950786802        -2.3147561930
        1.1750000000        -0.4041124091         2.0973213828        -2.5142181656
