% f=1.90Hz  n_cycles=5  N_total=526  dt=0.005000
% Amp=1.5000V  K_lin=5.741200
Time[s]              Vcmd[V]              Vc[V]                Vg[V]                Pot[V]               Omega[rad/s]         Omega_target[rad/s] 
        0.0000000000         0.0000000000         2.5000000000         1.3301823480         2.3756497207        -0.1781860289         0.0000000000
        0.0050000000         0.0894822321         2.7319493094         1.3429439823         2.3858572306         0.1542505922         0.5137353908
        0.0100000000         0.1786457401         2.7619274314         1.3352870017         2.3807534756        -0.0452113805         1.0256409233
        0.0150000000         0.2671729354         2.7915417487         1.3352870017         2.3807534756        -0.0452113805         1.5338932567
        0.0200000000         0.3547484955         2.8206929790         1.3301823480         2.3730978433        -0.1781860289         2.0366820626
        0.0250000000         0.4410604878         2.8492847993         1.3301823480         2.3807534756        -0.1781860289         2.5322164728
        0.0300000000         0.5258014803         2.8772240580         1.3378393285         2.3782015982         0.0212759438         3.0187314586
        0.0350000000         0.6086696365         2.9044209649         1.3276300211         2.3730978433        -0.2446733532         3.4944941171
        0.0400000000         0.6893697909         2.9307892622         1.3250776943         2.3884091080        -0.3111606774         3.9578098437
        0.0450000000         0.7676145002         2.9562463757         1.3352870017         2.3807534756        -0.0452113805         4.4070283684
        0.0500000000         0.8431250668         2.9807135494         1.3403916554         2.3807534756         0.0877632680         4.8405496334
        0.0550000000         0.9156325320         3.0041159651         1.3378393285         2.3782015982         0.0212759438         5.2568294926
        0.0600000000         0.9848786336         3.0263828468         1.3378393285         2.3807534756         0.0212759438         5.6543852114
        0.0650000000         1.0506167262         3.0474475534         1.3403916554         2.3807534756         0.0877632680         6.0318007483
        0.0700000000         1.1126126591         3.0672476593         1.3480486360         2.3884091080         0.2872252407         6.3877317985
        0.0750000000         1.1706456110         3.0857250246         1.3531532897         2.3909609855         0.4201998891         6.7209105819
        0.0800000000         1.2245088761         3.1028258567         1.3480486360         2.3833053531         0.2872252407         7.0301503593
        0.0850000000         1.2740106004         3.1185007625         1.3480486360         2.3884091080         0.2872252407         7.3143496590
        0.0900000000         1.3189744653         3.1327047947         1.3531532897         2.3935128629         0.4201998891         7.5724962001
        0.0950000000         1.3592403153         3.1453974902         1.3506009628         2.3858572306         0.3537125649         7.8036704984
        0.1000000000         1.3946647288         3.1565429033         1.3327346748         2.3833053531        -0.1116987047         8.0070491412
        0.1050000000         1.4251215287         3.1661096337         1.3403916554         2.3884091080         0.0877632680         8.1819077203
        0.1100000000         1.4505022316         3.1740708496         1.3378393285         2.3807534756         0.0212759438         8.3276234123
        0.1150000000         1.4707164351         3.1804043064         1.3352870017         2.3858572306        -0.0452113805         8.4436771970
        0.1200000000         1.4856921385         3.1850923624         1.3403916554         2.3884091080         0.0877632680         8.5296557058
        0.1250000000         1.4953760006         3.1881219898         1.3863335388         2.3884091080         1.2845351041         8.5852526946
        0.1300000000         1.4997335286         3.1894847834         1.5394731502         2.4037203728         5.2737745577         8.6102701342
        0.1350000000         1.4987492015         3.1891769660         1.5675487456         2.4241353924         6.0051351242         8.6046189157
        0.1400000000         1.4924265255         3.1871993906         1.5573394382         2.4573097994         5.7391858272         8.5683191680
        0.1450000000         1.4807880210         3.1835575399         1.5369208233         2.4700691867         5.2072872334         8.5015001861
        0.1500000000         1.4638751429         3.1782615228         1.5165022085         2.4853804515         4.6753886396         8.4043999705
        0.1550000000         1.4417481327         3.1713260682         1.5037405742         2.5057954711         4.3429520185         8.2773643794
        0.1600000000         1.4144858038         3.1627705152         1.5062929011         2.5338661232         4.4094393427         8.1208458970
        0.1650000000         1.3821852612         3.1526188002         1.4986359205         2.5364180006         4.2099773700         7.9354020218
        0.1700000000         1.3449615552         3.1408994407         1.5318161696         2.5619367752         5.0743125850         7.7216932806
        0.1750000000         1.3029472717         3.1276455145         1.5394731502         2.5849036724         5.2737745577         7.4804808760
        0.1800000000         1.2562920601         3.1128946352         1.5394731502         2.6027668146         5.2737745577         7.2126239752
        0.1850000000         1.2051621002         3.0966889219         1.5394731502         2.6231818342         5.2737745577         6.9190766495
        0.1900000000         1.1497395102         3.0790749649         1.5369208233         2.6487006088         5.2072872334         6.6008844760
        0.1950000000         1.0902216982         3.0601037838         1.5318161696         2.6614599961         5.0743125850         6.2591808139
        0.2000000000         1.0268206589         3.0398307793         1.5471301308         2.6920825256         5.4732365303         5.8951827668
        0.2050000000         0.9597622184         3.0183156779         1.5496824576         2.7073937904         5.5397238546         5.5101868484
        0.2100000000         0.8892852302         2.9956224670         1.5292638428         2.7252569326         5.0078252608         5.1055643639
        0.2150000000         0.8156407242         2.9718193211         1.5445778039         2.7456719523         5.4067492061         4.6827565256
        0.2200000000         0.7390910123         2.9469785168         1.5445778039         2.7737426043         5.4067492061         4.2432693199
        0.2250000000         0.6599087548         2.9211763359         1.5292638428         2.7788463592         5.0078252608         3.7886681430
        0.2300000000         0.5783759884         2.8944929558         1.5216068622         2.8018132564         4.8083632881         3.3205722247
        0.2350000000         0.4947831223         2.8670123244         1.5062929011         2.8222282761         4.4094393427         2.8406488617
        0.2400000000         0.4094279033         2.8388220195         1.5267115159         2.8426432957         4.9413379365         2.3506074783
        0.2450000000         0.3226143555         2.8100130905         1.5267115159         2.8758177027         4.9413379365         1.8521935379
        0.2500000000         0.2346516976         2.7806798808         1.5267115159         2.8911289674         4.9413379365         1.3471823260
        0.2550000000         0.1458532409         2.7509198295         1.5139498816         2.9013364773         4.6089013154         0.8373726266
        0.2600000000         0.0565352740         2.7208332509         1.5011882474         2.9115439871         4.2764646943         0.3245803151
        0.2650000000        -0.0329840641         2.5000000000         1.4909789399         2.9396146392         4.0105153974        -0.1893681090
        0.2700000000        -0.1223859174         2.2354537068         1.4909789399         2.9498221490         4.0105153974        -0.7026420287
        0.2750000000        -0.2113518479         2.2095773551         1.4858742862         2.9625815363         3.8775407489        -1.2134132292
        0.2800000000        -0.2995649708         2.1838079983         1.4629033445         2.9804446785         3.2791548309        -1.7198624102
        0.2850000000        -0.3867110823         2.1582394317         1.4629033445         3.0008596982         3.2791548309        -2.2201856658
        0.2900000000        -0.4724797795         2.1329659511         1.4118568074         3.0034115756         1.9494083463        -2.7126009100
        0.2950000000        -0.5565655654         2.1080819960         1.3837812120         3.0110672080         1.2180477798        -3.1953542238
        0.3000000000        -0.6386689373         2.0836817728         1.3684672508         3.0187228404         0.8191238345        -3.6667261031
        0.3050000000        -0.7184974540         2.0598588598         1.3352870017         3.0136190855        -0.0452113805        -4.1250375827
        0.3100000000        -0.7957667765         2.0367057948         1.3225253674         3.0059634531        -0.3776480016        -4.5686562170
        0.3150000000        -0.8702016816         2.0143136480         1.3225253674         3.0059634531        -0.3776480016        -4.9960018943
        0.3200000000        -0.9415370419         1.9927715813         1.3352870017         3.0187228404        -0.0452113805        -5.4055524652
        0.3250000000        -1.0095187703         1.9721663984         1.3429439823         3.0136190855         0.1542505922        -5.7958491638
        0.3300000000        -1.0739047245         1.9525820876         1.3327346748         3.0059634531        -0.1116987047        -6.1655018045
        0.3350000000        -1.1344655704         1.9340993614         1.3403916554         3.0110672080         0.0877632680        -6.5131937326
        0.3400000000        -1.1909855980         1.9167951982         1.3454963091         3.0187228404         0.2207379164        -6.8376865151
        0.3450000000        -1.2432634904         1.9007423879         1.3454963091         3.0187228404         0.2207379164        -7.1378243508
        0.3500000000        -1.2911130405         1.8860090893         1.3301823480         3.0059634531        -0.1781860289        -7.4125381882
        0.3550000000        -1.3343638146         1.8726584021         1.3327346748         3.0136190855        -0.1116987047        -7.6608495322
        0.3600000000        -1.3728617589         1.8607479596         1.3352870017         3.0059634531        -0.0452113805        -7.8818739304
        0.3650000000        -1.4064697489         1.8503295476         1.3327346748         3.0059634531        -0.1116987047        -8.0748241226
        0.3700000000        -1.4350680773         1.8414487531         1.3123160600         3.0161709629        -0.6435972985        -8.2390128456
        0.3750000000        -1.4585548806         1.8341446502         1.3378393285         3.0136190855         0.0212759438        -8.3738552805
        0.3800000000        -1.4768465018         1.8284495249         1.3352870017         3.0136190855        -0.0452113805        -8.4788711361
        0.3850000000        -1.4898777886         1.8243886452         1.3403916554         3.0161709629         0.0877632680        -8.5536863597
        0.3900000000        -1.4976023252         1.8219800790         1.2867927914         3.0059634531        -1.3084705408        -8.5980344692
        0.3950000000        -1.4999925978         1.8212345627         1.0953682772         2.9957559433        -6.2950198578        -8.6117575025
        0.4000000000        -1.4970400926         1.8221554225         1.1285485263         2.9753409236        -5.4306846428        -8.5948065799
        0.4050000000        -1.4887553261         1.8247385500         1.1464148143         2.9498221490        -4.9652733732        -8.5472420783
        0.4100000000        -1.4751678075         1.8289724326         1.1566241217         2.9345108842        -4.6993240763        -8.4692334164
        0.4150000000        -1.4563259337         1.8348382373         1.1744904097         2.9115439871        -4.2339128068        -8.3610584507
        0.4200000000        -1.4322968171         1.8423099480         1.1898043709         2.8987845998        -3.8349888614        -8.2231024864
        0.4250000000        -1.4031660462         1.8513545524         1.1770427366         2.8809214576        -4.1674254825        -8.0558569047
        0.4300000000        -1.3690373811         1.8619322772         1.1489671412         2.8579545605        -4.8987860490        -7.8599174124
        0.4350000000        -1.3300323836         1.8739968675         1.1464148143         2.8375395408        -4.9652733732        -7.6359819204
        0.4400000000        -1.2862899843         1.8874959049         1.1464148143         2.8171245211        -4.9652733732        -7.3848480578
        0.4450000000        -1.2379659880         1.9023711621         1.1387578337         2.8069170113        -5.1647353459        -7.1074103305
        0.4500000000        -1.1852325186         1.9185589874         1.1540717949         2.7916057465        -4.7658114006        -6.8046569356
        0.4550000000        -1.1282774056         1.9359907140         1.1591764486         2.7737426043        -4.6328367521        -6.4776662410
        0.4600000000        -1.0673035158         1.9545930900         1.1489671412         2.7482238297        -4.8987860490        -6.1276029450
        0.4650000000        -1.0025280303         1.9742887226         1.1413101606         2.7303606875        -5.0982480217        -5.7557139273
        0.4700000000        -0.9341816707         1.9949965326         1.1489671412         2.7099456679        -4.8987860490        -5.3633238080
        0.4750000000        -0.8625078781         2.0166322137         1.1515194680         2.6895306482        -4.8322987248        -4.9518302295
        0.4800000000        -0.7877619449         2.0391086927         1.1464148143         2.6742193834        -4.9652733732        -4.5226988783
        0.4850000000        -0.7102101066         2.0623365856         1.1515194680         2.6589081187        -4.8322987248        -4.0774582641
        0.4900000000        -0.6301285926         2.0862246474         1.1515194680         2.6359412215        -4.8322987248        -3.6176942759
        0.4950000000        -0.5478026428         2.1106802107         1.1617287755         2.6231818342        -4.5663494279        -3.1450445331
        0.5000000000        -0.4635254916         2.1356096121         1.1617287755         2.6053186920        -4.5663494279        -2.6611925522
        0.5050000000        -0.3775973230         2.1609186022         1.1540717949         2.5746961625        -4.7658114006        -2.1678617508
        0.5100000000        -0.2903242021         2.1865127393         1.1693857560         2.5695924076        -4.3668874552        -1.6668093090
        0.5150000000        -0.2020169842         2.2122977638         1.1617287755         2.5440736330        -4.5663494279        -1.1598199100
        0.5200000000        -0.1129902083         2.2381799532         1.1719380829         2.5313142457        -4.3004001310        -0.6486993838
        0.5250000000        -0.0235609760         2.5000000000         1.1719380829         2.5160029810        -4.3004001310        -0.1352682752
        0.5300000000         0.0659521775         2.7240125944         1.1770427366         2.4981398388        -4.1674254825         0.3786446413
        0.5350000000         0.1552304179         2.7540696061         1.1770427366         2.4828285740        -4.1674254825         0.8912088751
        0.5400000000         0.2439557478         2.7837894026         1.2025660052         2.4675173092        -3.5025522403         1.4005987392
        0.5450000000         0.3318121392         2.8130719615         1.2178799663         2.4547579220        -3.1036282949         1.9049998535
        0.5500000000         0.4184866591         2.8418201593         1.2408509080         2.4445504121        -2.5052423769         2.4026156070
        0.5550000000         0.5036705841         2.8699399905         1.2561648691         2.4343429023        -2.1063184315         2.8916735574
        0.5600000000         0.5870605003         2.8973407632         1.2689265034         2.4215835150        -1.7738818104         3.3704317441
        0.5650000000         0.6683593836         2.9239352744         1.2995544257         2.4292391474        -0.9760339196         3.8371848929
        0.5700000000         0.7472776580         2.9496399667         1.2995544257         2.4139278826        -0.9760339196         4.2902704902
        0.5750000000         0.8235342270         2.9743750675         1.3301823480         2.4139278826        -0.1781860289         4.7280747040
        0.5800000000         0.8968574746         2.9980647113         1.3403916554         2.4139278826         0.0877632680         5.1490381331
        0.5850000000         0.9669862329         3.0206370491         1.3429439823         2.4190316375         0.1542505922         5.5516613606
        0.5900000000         1.0336707126         3.0420243433         1.3429439823         2.4215835150         0.1542505922         5.9345102951
        0.5950000000         1.0966733921         3.0621630518         1.3429439823         2.4215835150         0.1542505922         6.2962212787
        0.6000000000         1.1557698642         3.0809939006         1.3506009628         2.4241353924         0.3537125649         6.6355059441
        0.6050000000         1.2107496349         3.0984619475         1.3454963091         2.4215835150         0.2207379164         6.9511558037
        0.6100000000         1.2614168734         3.1145166371         1.3403916554         2.4190316375         0.0877632680         7.2420465538
        0.6150000000         1.3075911098         3.1291118480         1.3429439823         2.4241353924         0.1542505922         7.5071420796
        0.6200000000         1.3491078773         3.1422059337         1.3480486360         2.4343429023         0.2872252407         7.7454981454
        0.6250000000         1.3858192988         3.1537617567         1.3378393285         2.4241353924         0.0212759438         7.9562657581
        0.6300000000         1.4175946128         3.1637467182         1.3403916554         2.4317910248         0.0877632680         8.1386941908
        0.6350000000         1.4443206398         3.1721327822         1.3378393285         2.4241353924         0.0212759438         8.2921336574
        0.6400000000         1.4659021854         3.1788964952         1.3276300211         2.4241353924        -0.2446733532         8.4160376265
        0.6450000000         1.4822623787         3.1840190030         1.3454963091         2.4215835150         0.2207379164         8.5099647684
        0.6500000000         1.4933429469         3.1874860627         1.4144091342         2.4317910248         2.0158956706         8.5735805268
        0.6550000000         1.4991044225         3.1892880519         1.5445778039         2.4471022896         5.4067492061         8.6066583106
        0.6600000000         1.4995262839         3.1894199754         1.5547871113         2.4649654318         5.6726985030         8.6090803013
        0.6650000000         1.4946070285         3.1878814674         1.5292638428         2.4853804515         5.0078252608         8.5808378718
