% f=0.90Hz  n_cycles=5  N_total=1111  dt=0.005000
% Amp=1.0000V  K_lin=7.165500
Time[s]              Vcmd[V]              Vc[V]                Vg[V]                Pot[V]               Omega[rad/s]         Omega_target[rad/s] 
        0.0000000000         0.0000000000         2.5000000000         1.3378393285         1.7989254150         0.0056514226         0.0000000000
        0.0050000000         0.0282705668         2.7478782931         1.3352870017         1.7963735375        -0.0608359017         0.2025727462
        0.0100000000         0.0565185345         2.7589700365         1.3506009628         1.8040291699         0.3380880437         0.4049835588
        0.0150000000         0.0847213221         2.7700857516         1.3378393285         1.7989254150         0.0056514226         0.6070706338
        0.0200000000         0.1128563849         2.7812167748         1.3276300211         1.7912697826        -0.2602978743         0.8086724258
        0.0250000000         0.1409012319         2.7923543323         1.3301823480         1.7963735375        -0.1938105501         1.0096277774
        0.0300000000         0.1688334447         2.8034895447         1.3301823480         1.7887179052        -0.1938105501         1.2097760481
        0.0350000000         0.1966306946         2.8146134325         1.3327346748         1.7938216601        -0.1273232259         1.4089572423
        0.0400000000         0.2242707609         2.8257169211         1.3352870017         1.7963735375        -0.0608359017         1.6070121376
        0.0450000000         0.2517315487         2.8367908470         1.3327346748         1.7912697826        -0.1273232259         1.8037824120
        0.0500000000         0.2789911060         2.8478259636         1.3939905194         1.7912697826         1.4683725555         1.9991107703
        0.0550000000         0.3060276422         2.8588129486         1.3888858657         1.8014772924         1.3353979071         2.1928410701
        0.0600000000         0.3328195445         2.8697424101         1.3812288851         1.8065810474         1.1359359344         2.3848184463
        0.0650000000         0.3593453960         2.8806048949         1.3863335388         1.8142366797         1.2689105829         2.5748894351
        0.0700000000         0.3855839923         2.8913908961         1.4093044805         1.8167885572         1.8672965009         2.7629020967
        0.0750000000         0.4115143586         2.9020908615         1.3837812120         1.8167885572         1.2024232586         2.9487061366
        0.0800000000         0.4371157667         2.9126952026         1.4067521537         1.8295479445         1.8008091767         3.1321530259
        0.0850000000         0.4623677510         2.9231943037         1.4220661148         1.8372035769         2.1997331220         3.3130961201
        0.0900000000         0.4872501257         2.9335785318         1.4169614611         1.8448592093         2.0667584736         3.4913907759
        0.0950000000         0.5117430001         2.9438382471         1.4271707685         1.8576185965         2.3327077705         3.6668944673
        0.1000000000         0.5358267950         2.9539638134         1.4169614611         1.8601704740         2.0667584736         3.8394668994
        0.1050000000         0.5594822581         2.9639456095         1.4246184417         1.8678261064         2.2662204463         4.0089701204
        0.1100000000         0.5826904797         2.9737740410         1.4271707685         1.8729298613         2.3327077705         4.1752686321
        0.1150000000         0.6054329074         2.9834395520         1.4297230954         1.8856892486         2.3991950947         4.3382294978
        0.1200000000         0.6276913613         2.9929326384         1.4348277491         1.9035523908         2.5321697432         4.4977224493
        0.1250000000         0.6494480483         3.0022438601         1.4424847297         1.9061042683         2.7316317159         4.6536199903
        0.1300000000         0.6706855765         3.0113638552         1.4450370565         1.9163117781         2.7981190401         4.8057974987
        0.1350000000         0.6913869690         3.0202833534         1.4424847297         1.9188636556         2.7316317159         4.9541333260
        0.1400000000         0.7115356772         3.0289931902         1.4475893834         1.9367267978         2.8646063643         5.0985088950
        0.1450000000         0.7311155947         3.0374843217         1.4552463639         1.9494861851         3.0640683370         5.2388087940
        0.1500000000         0.7501110696         3.0457478391         1.4654556714         1.9673493273         3.3300176339         5.3749208694
        0.1550000000         0.7685069172         3.0537749841         1.4577986908         1.9750049597         3.1305556612         5.5067363153
        0.1600000000         0.7862884321         3.0615571642         1.4629033445         1.9801087146         3.2635303097         5.6341497605
        0.1650000000         0.8034414001         3.0690859678         1.4629033445         1.9979718568         3.2635303097         5.7570593525
        0.1700000000         0.8199521093         3.0763531803         1.4782173056         2.0132831215         3.6624542550         5.8753668394
        0.1750000000         0.8358073614         3.0833507998         1.4782173056         2.0311462638         3.6624542550         5.9889776479
        0.1800000000         0.8509944818         3.0900710524         1.4807696325         2.0388018961         3.7289415793         6.0978009593
        0.1850000000         0.8655013303         3.0965064084         1.4756649788         2.0464575285         3.5959669308         6.2017497819
        0.1900000000         0.8793163102         3.1026495973         1.4807696325         2.0643206707         3.7289415793         6.3007410207
        0.1950000000         0.8924283781         3.1084936237         1.4858742862         2.0770800580         3.8619162277         6.3946955434
        0.2000000000         0.9048270525         3.1140317823         1.4960835936         2.0974950777         4.1278655246         6.4835382444
        0.2050000000         0.9165024219         3.1192576726         1.4935312668         2.1153582199         4.0613782004         6.5671981042
        0.2100000000         0.9274451533         3.1241652135         1.5062929011         2.1332213621         4.3938148215         6.6456082462
        0.2150000000         0.9376464993         3.1287486572         1.5037405742         2.1536363818         4.3273274973         6.7187059907
        0.2200000000         0.9470983050         3.1330026028         1.5165022085         2.1689476465         4.6597641184         6.7864329044
        0.2250000000         0.9557930148         3.1369220091         1.5088452279         2.1817070338         4.4603021457         6.8487348475
        0.2300000000         0.9637236783         3.1405022067         1.5165022085         2.1944664211         4.6597641184         6.9055620168
        0.2350000000         0.9708839558         3.1437389098         1.5241591891         2.2174333183         4.8592260911         6.9568689854
        0.2400000000         0.9772681236         3.1466282265         1.5190545354         2.2378483379         4.7262514427         7.0026147394
        0.2450000000         0.9828710781         3.1491666689         1.5267115159         2.2557114802         4.9257134153         7.0427627104
        0.2500000000         0.9876883406         3.1513511616         1.5292638428         2.2786783773         4.9922007396         7.0772808045
        0.2550000000         0.9917160601         3.1531790501         1.5369208233         2.2990933970         5.1916627122         7.1061414287
        0.2600000000         0.9949510170         3.1546481073         1.5292638428         2.3169565392         4.9922007396         7.1293215122
        0.2650000000         0.9973906252         3.1557565395         1.5420254771         2.3322678039         5.3246373607         7.1468025251
        0.2700000000         0.9990329347         3.1565029909         1.5394731502         2.3603384560         5.2581500365         7.1585704934
        0.2750000000         0.9998766325         3.1568865475         1.5420254771         2.3756497207         5.3246373607         7.1646160100
        0.2800000000         0.9999210442         3.1569067393         1.5292638428         2.3858572306         4.9922007396         7.1649342422
        0.2850000000         0.9991661343         3.1565635415         1.5496824576         2.4164797601         5.5240993334         7.1595249356
        0.2900000000         0.9976125064         3.1558573747         1.5547871113         2.4368947797         5.6570739818         7.1483924143
        0.2950000000         0.9952614022         3.1547891037         1.5496824576         2.4649654318         5.5240993334         7.1315455775
        0.3000000000         0.9921147013         3.1533600353         1.5522347845         2.4853804515         5.5905866576         7.1089978923
        0.3050000000         0.9881749191         3.1515719149         1.5573394382         2.4904842064         5.7235613061         7.0807673829
        0.3100000000         0.9834452050         3.1494269215         1.5369208233         2.5134511035         5.1916627122         7.0468766164
        0.3150000000         0.9779293398         3.1469276627         1.5598917651         2.5466255105         5.7900486303         7.0073526846
        0.3200000000         0.9716317329         3.1440771672         1.5701010725         2.5695924076         6.0559979272         6.9622271822
        0.3250000000         0.9645574185         3.1408788777         1.5522347845         2.5874555498         5.5905866576         6.9115361820
        0.3300000000         0.9567120516         3.1373366416         1.5624440919         2.6104224470         5.8565359545         6.8553202054
        0.3350000000         0.9481019037         3.1334547015         1.5573394382         2.6257337117         5.7235613061         6.7936241908
        0.3400000000         0.9387338577         3.1292376847         1.5573394382         2.6563562412         5.7235613061         6.7264974570
        0.3450000000         0.9286154021         3.1246905917         1.5726533993         2.6844268933         6.1224852514         6.6539936640
        0.3500000000         0.9177546257         3.1198187840         1.5701010725         2.6997381580         6.0559979272         6.5761707703
        0.3550000000         0.9061602102         3.1146279715         1.5598917651         2.7227050552         5.7900486303         6.4930909863
        0.3600000000         0.8938414242         3.1091241990         1.5649964188         2.7456719523         5.9230232787         6.4048207248
        0.3650000000         0.8808081149         3.1033138322         1.5752057262         2.7711907269         6.1889725756         6.3114305475
        0.3700000000         0.8670707012         3.0972035433         1.5701010725         2.7967095015         6.0559979272         6.2129951092
        0.3750000000         0.8526401644         3.0908002962         1.5777580530         2.8247801535         6.2554598999         6.1095930977
        0.3800000000         0.8375280400         3.0841113316         1.5675487456         2.8400914183         5.9895106030         6.0013071709
        0.3850000000         0.8217464086         3.0771441510         1.5726533993         2.8656101929         6.1224852514         5.8882238910
        0.3900000000         0.8053078857         3.0699065022         1.5752057262         2.8936808449         6.1889725756         5.7704336551
        0.3950000000         0.7882256120         3.0624063623         1.5803103799         2.9140958646         6.3219472241         5.6480306227
        0.4000000000         0.7705132428         3.0546519233         1.5701010725         2.9345108842         6.0559979272         5.5211126411
        0.4050000000         0.7521849371         3.0466515755         1.5624440919         2.9600296588         5.8565359545         5.3897811665
        0.4100000000         0.7332553462         3.0384138920         1.5828627068         2.9804446785         6.3884345483         5.2541411834
        0.4150000000         0.7137396023         3.0299476137         1.5726533993         3.0034115756         6.1224852514         5.1143011201
        0.4200000000         0.6936533058         3.0212616332         1.5598917651         3.0263784728         5.7900486303         4.9703727628
        0.4250000000         0.6730125135         3.0123649802         1.5649964188         3.0442416150         5.9230232787         4.8224711656
        0.4300000000         0.6518337253         3.0032668066         1.5598917651         3.0672085121         5.7900486303         4.6707145586
        0.4350000000         0.6301338712         2.9939763715         1.5573394382         3.0927272867         5.7235613061         4.5152242540
        0.4400000000         0.6079302977         2.9845030275         1.5675487456         3.1207979388         5.9895106030         4.3561245481
        0.4450000000         0.5852407540         2.9748562064         1.5573394382         3.1412129584         5.7235613061         4.1935426230
        0.4500000000         0.5620833779         2.9650454062         1.5496824576         3.1641798556         5.5240993334         4.0276084440
        0.4550000000         0.5384766808         2.9550801774         1.5496824576         3.1845948752         5.5240993334         3.8584546565
        0.4600000000         0.5144395338         2.9449701108         1.5496824576         3.2050098949         5.5240993334         3.6862164793
        0.4650000000         0.4899911516         2.9347248253         1.5445778039         3.2279767920         5.3911246849         3.5110315971
        0.4700000000         0.4651510781         2.9243539558         1.5420254771         3.2509436892         5.3246373607         3.3330400500
        0.4750000000         0.4399391699         2.9138671425         1.5445778039         3.2713587088         5.3911246849         3.1523841216
        0.4800000000         0.4143755810         2.9032740195         1.5420254771         3.2943256060         5.3246373607         2.9692082256
        0.4850000000         0.3884807466         2.8925842049         1.5216068622         3.3045331158         4.7927387669         2.7836587900
        0.4900000000         0.3622753667         2.8818072908         1.5394731502         3.3300518904         5.2581500365         2.5958841401
        0.4950000000         0.3357803894         2.8709528338         1.5267115159         3.3453631551         4.9257134153         2.4060343802
        0.5000000000         0.3090169944         2.8600303462         1.5241591891         3.3657781748         4.8592260911         2.2142612732
        0.5050000000         0.2820065759         2.8490492878         1.5216068622         3.3887450720         4.7927387669         2.0207181196
        0.5100000000         0.2547707257         2.8380190574         1.5190545354         3.4040563367         4.7262514427         1.8255596349
        0.5150000000         0.2273312156         2.8269489856         1.5062929011         3.4193676015         4.3938148215         1.6289418257
        0.5200000000         0.1997099805         2.8158483277         1.5139498816         3.4423344986         4.5932767942         1.4310218654
        0.5250000000         0.1719291003         2.8047262567         1.4986359205         3.4678532732         4.1943528488         1.2319579681
        0.5300000000         0.1440107826         2.7935918573         1.5113975548         3.4831645379         4.5267894700         1.0319092624
        0.5350000000         0.1159773448         2.7824541200         1.4960835936         3.4984758027         4.1278655246         0.8310356642
        0.5400000000         0.0878511966         2.7713219356         1.5037405742         3.5137870674         4.3273274973         0.6294977489
        0.5450000000         0.0596548214         2.7602040897         1.5190545354         3.5393058420         4.7262514427         0.4274566227
        0.5500000000         0.0314107591         2.7491092584         1.4884266131         3.5444095970         3.9284035519         0.2250737942
        0.5550000000         0.0031415875         2.5000000000         1.4858742862         3.5597208617         3.8619162277         0.0225110451
        0.5600000000        -0.0251300954         2.2496043062         1.4807696325         3.5775840039         3.7289415793        -0.1800696989
        0.5650000000        -0.0533816898         2.2379127958         1.4756649788         3.5852396363         3.5959669308        -0.3825064980
        0.5700000000        -0.0815906116         2.2261989939         1.4348277491         3.5954471461         2.5321697432        -0.5846375272
        0.5750000000        -0.1097343111         2.2144720823         1.3888858657         3.5979990236         1.3353979071        -0.7863012061
        0.5800000000        -0.1377902907         2.2027413479         1.3429439823         3.6031027785         0.1386260710        -0.9873363279
        0.5850000000        -0.1657361228         2.1910161773         1.3199730405         3.6107584109        -0.4597598470        -1.1875821881
        0.5900000000        -0.1935494681         2.1793060503         1.3327346748         3.6082065334        -0.1273232259        -1.3868787133
        0.5950000000        -0.2212080928         2.1676205343         1.3327346748         3.6056546560        -0.1273232259        -1.5850665889
        0.6000000000        -0.2486898872         2.1559692775         1.3276300211         3.6082065334        -0.2602978743        -1.7819873865
        0.6050000000        -0.2759728826         2.1443620019         1.3327346748         3.6082065334        -0.1273232259        -1.9774836906
        0.6100000000        -0.3030352696         2.1328084958         1.3276300211         3.6056546560        -0.2602978743        -2.1713992246
        0.6150000000        -0.3298554149         2.1213186066         1.3352870017         3.6107584109        -0.0608359017        -2.3635789752
        0.6200000000        -0.3564118787         2.1099022318         1.2970020988         3.6056546560        -1.0581457651        -2.5538693169
        0.6250000000        -0.3826834324         2.0985693111         1.2382985811         3.5979990236        -2.5873542223        -2.7421181346
        0.6300000000        -0.4086490747         2.0873298170         1.2970020988         3.5979990236        -1.0581457651        -2.9281749450
        0.6350000000        -0.4342880493         2.0761937456         1.2842404646         3.5877915138        -1.3905823862        -3.1118910172
        0.6400000000        -0.4595798606         2.0651711065         1.2382985811         3.5750321265        -2.5873542223        -3.2931194913
        0.6450000000        -0.4845042908         2.0542719128         1.2663741766         3.5648246166        -1.8559936558        -3.4717154960
        0.6500000000        -0.5090414158         2.0435061701         1.2485078886         3.5622727392        -2.3214049254        -3.6475362646
        0.6550000000        -0.5331716207         2.0328838656         1.2459555617         3.5495133519        -2.3878922496        -3.8204412484
        0.6600000000        -0.5568756165         2.0224149562         1.2408509080         3.5393058420        -2.5208668981        -3.9902922299
        0.6650000000        -0.5801344544         2.0121093572         1.2485078886         3.5316502097        -2.3214049254        -4.1569534329
