% f=3.40Hz  n_cycles=5  N_total=294  dt=0.005000
% Amp=400.00deg/s
Time[s]              OmegaCmd[deg/s]      Vc[V]                Vg[V]                Pot[V]               Omega[rad/s]         Omega_target[rad/s] 
        0.0000000000         0.0000000000         2.4974092728         1.3403916554         1.5845677084         0.0638278313         0.0000000000
        0.0050000000        42.6444617101         2.7459909766         1.3480486360         1.5871195859         0.2632898039         0.7442862646
        0.0100000000        84.8028439688         2.7967310151         1.3429439823         1.5896714634         0.1303151555         1.4800888423
        0.0150000000       125.9946078621         2.8448276723         1.3327346748         1.5769120761        -0.1356341414         2.1990207470
        0.0200000000       165.7502323973         2.8899559982         1.3327346748         1.5794639535        -0.1356341414         2.8928872913
        0.0250000000       203.6165663001         2.9318670099         1.3327346748         1.5769120761        -0.1356341414         3.5537794935
        0.0300000000       239.1619932230         2.9703654124         1.3378393285         1.5871195859        -0.0026594930         4.1741642274
        0.0350000000       271.9813514890         3.0052872414         1.3327346748         1.5820158310        -0.1356341414         4.7469700875
        0.0400000000       301.7005522944         3.0364808919         1.3378393285         1.5871195859        -0.0026594930         5.2656679926
        0.0450000000       327.9808437302         3.0637942273         1.3352870017         1.5871195859        -0.0691468172         5.7243456066
        0.0500000000       350.5226720175         3.0870692670         1.3327346748         1.5794639535        -0.1356341414         6.1177747296
        0.0550000000       369.0690959480         3.1061445488         1.3378393285         1.5871195859        -0.0026594930         6.4414708917
        0.0600000000       383.4087156070         3.1208638995         1.3378393285         1.5845677084        -0.0026594930         6.6917444682
        0.0650000000       393.3780819981         3.1310892515         1.3327346748         1.5794639535        -0.1356341414         6.8657427360
        0.0700000000       398.8635601042         3.1367145223         1.3378393285         1.5871195859        -0.0026594930         6.9614823900
        0.0750000000       399.8026241463         3.1376775117         1.3250776943         1.5922233408        -0.3350961141         6.9778721495
        0.0800000000       396.1845702787         3.1339672872         1.3378393285         1.5871195859        -0.0026594930         6.9147251970
        0.0850000000       388.0506385960         3.1256255099         1.3327346748         1.5820158310        -0.1356341414         6.7727613080
        0.0900000000       375.4935430615         3.1127414250         1.3352870017         1.5871195859        -0.0691468172         6.5535986464
        0.0950000000       358.6564147141         3.0954415636         1.3403916554         1.5896714634         0.0638278313         6.2597353202
        0.1000000000       337.7311702008         3.0738763274         1.3506009628         1.5896714634         0.3297771282         5.8945209066
        0.1050000000       312.9563242306         3.0482063563         1.3965428462         1.5973270957         1.5265489642         5.4621182728
        0.1100000000       284.6142708837         3.0185917583         1.4603510177         1.5998789732         3.1887320699         4.9674561251
        0.1150000000       253.0280647653         2.9851868838         1.5292638428         1.6228458703         4.9838898240         4.4161728301
        0.1200000000       218.5577386937         2.9481424084         1.5216068622         1.6381571351         4.7844278514         3.8145521459
        0.1250000000       181.5961998958         2.9076152066         1.5113975548         1.6560202773         4.5184785544         3.1694515973
        0.1300000000       142.5647514853         2.8637850858         1.4935312668         1.6687796646         4.0530672849         2.4882243107
        0.1350000000       101.9082902734         2.8168761355         1.4705603251         1.6738834195         3.4546813668         1.7786352003
        0.1400000000        60.0902356483         2.7671794863         1.4833219594         1.6968503166         3.7871179880         1.0487724604
        0.1450000000        17.5872473271         2.6914552444         1.4884266131         1.7096097039         3.9200926364         0.3069553722
        0.1500000000       -25.1162078117         2.2692683357         1.4858742862         1.7249209687         3.8536053122        -0.4383605219
        0.1550000000       -67.5333778851         2.2095054663         1.4629033445         1.7325766011         3.2552193941        -1.1786797991
        0.1600000000      -109.1807742069         2.1543052485         1.4475893834         1.7478878658         2.8562954488        -1.9055639898
        0.1650000000      -149.5836822951         2.1035898548         1.4297230954         1.7631991306         2.3908841792        -2.6107277633
        0.1700000000      -188.2815728661         2.0572270245         1.3965428462         1.7657510080         1.5265489642        -3.2861333673
        0.1750000000      -224.8333511409         2.0150778675         1.3863335388         1.7708547629         1.2605996673        -3.9240822457
        0.1800000000      -258.8223846278         1.9770341487         1.3710195777         1.7836141502         0.8616757220        -4.5173027896
        0.1850000000      -289.8612520748         1.9430426358         1.3480486360         1.7785103953         0.2632898039        -5.0590332227
        0.1900000000      -317.5961594591         1.9131156990         1.3378393285         1.7836141502        -0.0026594930        -5.5430986743
        0.1950000000      -341.7109726797         1.8873289172         1.3429439823         1.7836141502         0.1303151555        -5.9639815635
        0.2000000000      -361.9308209864         1.8658078054         1.3352870017         1.7759585179        -0.0691468172        -6.3168844907
        0.2050000000      -378.0252300719         1.8487068157         1.3378393285         1.7785103953        -0.0026594930        -6.5977849204
        0.2100000000      -389.8107491146         1.8361843931         1.3276300211         1.7708547629        -0.2686087899        -6.8034810317
        0.2150000000      -397.1530418279         1.8283780397         1.3352870017         1.7759585179        -0.0691468172        -6.9316282142
        0.2200000000      -399.9684176815         1.8253830687         1.3327346748         1.7708547629        -0.1356341414        -6.9807657925
        0.2250000000      -398.2247858412         1.8272380522         1.3352870017         1.7759585179        -0.0691468172        -6.9503336760
        0.2300000000      -391.9420209537         1.8339189679         1.3301823480         1.7683028855        -0.2021214656        -6.8406787426
        0.2350000000      -381.1917366069         1.8453428418         1.3276300211         1.7683028855        -0.2686087899        -6.6530508852
        0.2400000000      -366.0964690484         1.8613803925         1.3352870017         1.7734066404        -0.0691468172        -6.3895887648
        0.2450000000      -346.8282804658         1.8818759396         1.3174207137         1.7708547629        -0.5345580868        -6.0532954332
        0.2500000000      -323.6067977500         1.9066717837         1.2842404646         1.7683028855        -1.3988933017        -5.6480041026
        0.2550000000      -296.6967090955         1.9356335010         1.1489671412         1.7529916207        -4.9227214857        -5.1783344535
        0.2600000000      -266.4047469737         1.9686722251         1.1311008532         1.7325766011        -5.3881327553        -4.6496399776
        0.2650000000      -233.0761918674         2.0057600514         1.1464148143         1.7198172138        -4.9892088100        -4.0679469561
        0.2700000000      -197.0909366193         2.0469352254         1.1642811023         1.7019540715        -4.5237975404        -3.4398857698
        0.2750000000      -158.8591562539         2.0922947230         1.1872520440         1.6815390519        -3.9254116223        -2.7726153236
        0.2800000000      -118.8166326308         2.1419731242         1.1974613514         1.6713315420        -3.6594623254        -2.0737414455
        0.2850000000       -77.4197872203         2.1961082145         1.1872520440         1.6509165224        -3.9254116223        -1.3512301932
        0.2900000000       -35.1404786203         2.2547953556         1.2000136783         1.6509165224        -3.5929750012        -0.6133170527
        0.2950000000         7.5393758862         2.5805937241         1.2153276394         1.6356052576        -3.1940510559         0.1315869328
        0.3000000000        50.1332934257         2.7551199891         1.2229846200         1.6279496252        -2.9945890832         0.8749910351
        0.3050000000        92.1557706706         2.8054211378         1.2306416006         1.6075346056        -2.7951271105         1.6084216229
        0.3100000000       133.1278178092         2.8530151479         1.2587171960         1.5973270957        -2.0637665440         2.3235187468
        0.3150000000       172.5824182724         2.8975919750         1.2689265034         1.5922233408        -1.7978172471         3.0121314299
        0.3200000000       210.0698519845         2.9389137798         1.2867927914         1.5845677084        -1.3324059775         3.6664105763
        0.3250000000       245.1628214612         2.9767923666         1.3072114063         1.5794639535        -0.8005073837         4.2788984380
        0.3300000000       277.4613223251         3.0110671861         1.3250776943         1.5743601986        -0.3350961141         4.8426136215
        0.3350000000       306.5972027237         3.0415872724         1.3429439823         1.5820158310         0.1303151555         5.3511306649
        0.3400000000       332.2383596783         3.0681996181         1.3352870017         1.5820158310        -0.0691468172         5.7986532778
        0.3450000000       354.0925245330         3.0907452500         1.3352870017         1.5845677084        -0.0691468172         6.1800804098
        0.3500000000       371.9105943553         3.1090628513         1.3429439823         1.5896714634         0.1303151555         6.4910643945
        0.3550000000       385.4894713160         3.1229984414         1.3454963091         1.5896714634         0.1968024797         6.7280605062
        0.3600000000       394.6743776831         3.1324186071         1.3378393285         1.5820158310        -0.0026594930         6.8883673638
        0.3650000000       399.3606200436         3.1372242455         1.3378393285         1.5845677084        -0.0026594930         6.9701577226
        0.3700000000       399.4947826424         3.1373618264         1.3378393285         1.5820158310        -0.0026594930         6.9724993016
        0.3750000000       395.0753362381         3.1328297865         1.3378393285         1.5820158310        -0.0026594930         6.8953654108
        0.3800000000       386.1526555333         3.1236787197         1.3403916554         1.5845677084         0.0638278313         6.7396352544
        0.3850000000       372.8284449833         3.1100053218         1.3403916554         1.5769120761         0.0638278313         6.5070839100
        0.3900000000       355.2545795254         3.0919413577         1.3403916554         1.5743601986         0.0638278313         6.2003620955
        0.3950000000       333.6313734453         3.0696399840         1.3506009628         1.5769120761         0.3297771282         5.8229659546
        0.4000000000       308.2052971103         3.0432624024         1.4041998268         1.5922233408         1.7260109369         5.3791972067
        0.4050000000       279.2661675974         3.0129678925         1.4705603251         1.6075346056         3.4546813668         4.8741141140
        0.4100000000       247.1438452361         2.9789097814         1.5216068622         1.6151902379         4.7844278514         4.3134738254
        0.4150000000       212.2044737227         2.9412389054         1.5062929011         1.6253977478         4.3855039060         3.7036667539
        0.4200000000       174.8463066604         2.9001148028         1.5037405742         1.6534683998         4.3190165818         3.0516437362
        0.4250000000       135.4951680981         2.8557234583         1.4858742862         1.6636759097         3.8536053122         2.3648368039
        0.4300000000        94.5995988095         2.8082991542         1.4756649788         1.6764352970         3.5876560153         1.6510744703
        0.4350000000        52.6257436369         2.7581471017         1.4756649788         1.6866428068         3.5876560153         0.9184924978
        0.4400000000        10.0520381773         2.6083167661         1.4782173056         1.6994021941         3.6541433395         0.1754411627
        0.4450000000       -32.6362446273         2.2583899466         1.4858742862         1.7249209687         3.8536053122        -0.5696099242
        0.4500000000       -74.9525258343         2.1994338314         1.4680079982         1.7402322334         3.3881940426        -1.3081683585
        0.4550000000      -116.4144667313         2.1450329414         1.4475893834         1.7427841109         2.8562954488        -2.0318157414
        0.4600000000      -156.5494667349         2.0950960170         1.4297230954         1.7580953756         2.3908841792        -2.7323036368
        0.4650000000      -194.9000502901         2.0494864106         1.4093044805         1.7683028855         1.8589855854        -3.4016475899
        0.4700000000      -231.0290813689         2.0080682789         1.3939905194         1.7734066404         1.4600616400        -4.0322181377
        0.4750000000      -264.5247461295         1.9707417144         1.3735719045         1.7785103953         0.9281630462        -4.6168277730
        0.4800000000      -295.0052469433         1.9374646799         1.3454963091         1.7683028855         0.1968024797        -5.1488128698
        0.4850000000      -322.1231542844         1.9082612182         1.3403916554         1.7657510080         0.0638278313        -5.6221096392
        0.4900000000      -345.5693668771         1.8832169511         1.3327346748         1.7657510080        -0.1356341414        -6.0313232460
        0.4950000000      -365.0766349614         1.8624641894         1.3276300211         1.7657510080        -0.2686087899        -6.3717893022
        0.5000000000      -380.4226065181         1.8461599534         1.3276300211         1.7631991306        -0.2686087899        -6.6396270328
        0.5050000000      -391.4323617302         1.8344607439         1.3378393285         1.7759585179        -0.0026594930        -6.8317835110
        0.5100000000      -397.9804067925         1.8274980052         1.3301823480         1.7683028855        -0.2021214656        -6.9460684570
        0.5150000000      -399.9921043425         1.8253578665         1.3327346748         1.7683028855        -0.1356341414        -6.9811792028
        0.5200000000      -397.4445242080         1.8280680116         1.3327346748         1.7683028855        -0.1356341414        -6.9367155415
        0.5250000000      -390.3667047755         1.8355934801         1.3250776943         1.7606472531        -0.3350961141        -6.8131842885
        0.5300000000      -378.8393219979         1.8478419711         1.3276300211         1.7606472531        -0.2686087899        -6.6119935049
        0.5350000000      -362.9937698164         1.8646779291         1.3327346748         1.7657510080        -0.1356341414        -6.3354364475
        0.5400000000      -343.0106624775         1.8859434702         1.3250776943         1.7708547629        -0.3350961141        -5.9866654297
        0.5450000000      -319.1177758154         1.9114831985         1.2689265034         1.7606472531        -1.7978172471        -5.5696558896
        0.5500000000      -291.5874509686         1.9411692582         1.1336531800         1.7453359884        -5.3216454311        -5.0891610769
        0.5550000000      -260.7334901204         1.9749226735         1.1413101606         1.7300247236        -5.1221834584        -4.5506578728
        0.5600000000      -226.9075796507         2.0127271710         1.1489671412         1.7070578265        -4.9227214857        -3.9602843626
        0.5650000000      -190.4952814672         2.0546322843         1.1821473903         1.7045059490        -4.0583862708        -3.3247698711
        0.5700000000      -151.9116382087         2.1007435530         1.1923566977         1.6764352970        -3.7924369739        -2.6513582588
        0.5750000000      -111.5964424157         2.1511989783         1.2000136783         1.6611240322        -3.5929750012        -1.9477253537
        0.5800000000       -70.0092235901         2.2061324472         1.1974613514         1.6534683998        -3.6594623254        -1.2218914584
        0.5850000000       -27.6240102858         2.2656264530         1.2000136783         1.6381571351        -3.5929750012        -0.4821299321
        0.5900000000        15.0760730680         2.6637486204         1.2102229857         1.6151902379        -3.3270257043         0.2631271133
        0.5950000000        57.6043130209         2.7641769397         1.2127753126         1.6100864830        -3.2605383801         1.0053849256
        0.6000000000        99.4759548659         2.8140267224         1.2434032349         1.6049827281        -2.4626904894         1.7361829390
        0.6050000000       140.2137280765         2.8611084802         1.2536125423         1.5871195859        -2.1967411924         2.4471912114
        0.6100000000       179.3532864360         2.9051264597         1.2714788303         1.5845677084        -1.7313299229         3.1303053726
        0.6150000000       216.4485008507         2.9458532534         1.3199730405         1.5769120761        -0.4680707626         3.7777390009
        0.6200000000       251.0765445163         2.9831070708         1.3199730405         1.5845677084        -0.4680707626         4.3821123763
        0.6250000000       282.8427124746         3.0167302092         1.3301823480         1.5743601986        -0.2021214656         4.9365365980
        0.6300000000       311.3849206268         3.0465719762         1.3480486360         1.5820158310         0.2632898039         5.4346921060
        0.6350000000       336.3778329193         3.0724783717         1.3327346748         1.5743601986        -0.1356341414         5.8709007152
        0.6400000000       357.5365696605         3.0942895470         1.3403916554         1.5820158310         0.0638278313         6.2401903369
        0.6450000000       374.6199546993         3.1118446381         1.3250776943         1.5743601986        -0.3350961141         6.5383516532
        0.6500000000       387.4332644515         3.1249922774         1.3352870017         1.5743601986        -0.0691468172         6.7619860964
        0.6550000000       395.8304474411         3.1336041415         1.3352870017         1.5820158310        -0.0691468172         6.9085445875
        0.6600000000       399.7157890562         3.1375884640         1.3327346748         1.5718083211        -0.1356341414         6.9763565912
        0.6650000000       399.0450025445         3.1369005871         1.3327346748         1.5667045662        -0.1356341414         6.9646491580
