% f=2.55Hz  n_cycles=5  N_total=392  dt=0.005000
% Amp=2.0000V  K_lin=4.959600
Time[s]              Vcmd[V]              Vc[V]                Vg[V]                Pot[V]               Omega[rad/s]         Omega_target[rad/s] 
        0.0000000000         0.0000000000         2.5000000000         1.3301823480         1.8269960670        -0.1938105501         0.0000000000
        0.0050000000         0.1600499047         2.7647162341         1.3327346748         1.8244441896        -0.1273232259         0.7937835076
        0.0100000000         0.3190732048         2.8144747166         1.3378393285         1.8295479445         0.0056514226         1.5824754665
        0.0150000000         0.4760498804         2.8636232018         1.3531532897         1.8244441896         0.4045753679         2.3610169867
        0.0200000000         0.6299730393         2.9118450234         1.3276300211         1.8295479445        -0.2602978743         3.1244142858
        0.0250000000         0.7798553756         2.9588289170         1.3378393285         1.8320998220         0.0056514226         3.8677707207
        0.0300000000         0.9247355021         3.0042710662         1.3352870017         1.8320998220        -0.0608359017         4.5863181961
        0.0350000000         1.0636841173         3.0478771124         1.3454963091         1.8372035769         0.2051133952         5.2754477482
        0.0400000000         1.1958099661         3.0893641169         1.3761242314         1.8423073318         1.0029612860         5.9307391079
        0.0450000000         1.3202655565         3.1284624581         1.4577986908         1.8320998220         3.1305556612         6.5479890539
        0.0500000000         1.4362525955         3.1649176515         1.4118568074         1.8474110867         1.9337838251         7.1232383728
        0.0550000000         1.5430271101         3.1984920776         1.4297230954         1.8576185965         2.3991950947         7.6527972552
        0.0600000000         1.6399042187         3.2289666038         1.4731126519         1.8703779838         3.5294796066         8.1332689628
        0.0650000000         1.7262625244         3.2561420892         1.4424847297         1.8754817388         2.7316317159         8.5615716162
        0.0700000000         1.8015481012         3.2798407565         1.4884266131         1.8805854937         3.9284035519         8.9349579628
        0.0750000000         1.8652780463         3.2999074241         1.4909789399         1.9035523908         3.9948908762         9.2510329984
        0.0800000000         1.9170435780         3.3162105836         1.4935312668         1.9137599006         4.0613782004         9.5077693296
        0.0850000000         1.9565126579         3.3286433176         1.5165022085         1.9367267978         4.6597641184         9.7035201782
        0.0900000000         1.9834321202         3.3371240468         1.5062929011         1.9520380625         4.3938148215         9.8370299434
        0.0950000000         1.9976292960         3.3415971013         1.5547871113         1.9775568371         5.6570739818         9.9074422567
        0.1000000000         1.9990131207         3.3420331115         1.5292638428         1.9903162244         4.9922007396         9.9143054736
        0.1050000000         1.9875747180         3.3384292145         1.5369208233         2.0132831215         5.1916627122         9.8575755716
        0.1100000000         1.9633874571         3.3308090738         1.5777580530         2.0362500187         6.2554598999         9.7376164322
        0.1150000000         1.9266064817         3.3192227133         1.5598917651         2.0592169158         5.7900486303         9.5551975067
        0.1200000000         1.8774677153         3.3037461663         1.5649964188         2.0694244256         5.9230232787         9.3114888808
        0.1250000000         1.8162863477         3.2844809424         1.5675487456         2.1000469552         5.9895106030         9.0080537698
        0.1300000000         1.7434548131         3.2615533178         1.5675487456         2.1179100974         5.9895106030         8.6468384909
        0.1350000000         1.6594402734         3.2351134542         1.5777580530         2.1383251170         6.2554598999         8.2301599797
        0.1400000000         1.5647816212         3.2053343540         1.5752057262         2.1791551564         6.1889725756         7.7606909283
        0.1450000000         1.4600860235         3.1724106620         1.5879673605         2.1944664211         6.5214091968         7.2414426420
        0.1500000000         1.3460250270         3.1365573217         1.5803103799         2.2148814408         6.3219472241         6.6757457240
        0.1550000000         1.2233302509         3.0980080984         1.5675487456         2.2378483379         5.9895106030         6.0672287122
        0.1600000000         1.0927886935         3.0570139820         1.5905196873         2.2735746224         6.5878965210         5.4197948041
        0.1650000000         0.9552376848         3.0138414802         1.5752057262         2.2914377646         6.1889725756         4.7375968215
        0.1700000000         0.8115595153         2.9687708174         1.5675487456         2.3093009068         5.9895106030         4.0250105722
        0.1750000000         0.6626757769         2.9220940529         1.5777580530         2.3424753138         6.2554598999         3.2866067832
        0.1800000000         0.5095414514         2.8741131320         1.5752057262         2.3730978433         6.1889725756         2.5271217822
        0.1850000000         0.3531387849         2.8251378845         1.5573394382         2.3833053531         5.7235613061         1.7514271176
        0.1900000000         0.1944709878         2.7754839859         1.5675487456         2.4088241277         5.9895106030         0.9644983113
        0.1950000000         0.0345557997         2.5000000000         1.5598917651         2.4368947797         5.7900486303         0.1713829440
        0.2000000000        -0.1255810391         2.2422307712         1.5369208233         2.4522060445         5.1916627122        -0.6228317213
        0.2050000000        -0.2849123660         2.1842528176         1.5369208233         2.4700691867         5.1916627122        -1.4130513703
        0.2100000000        -0.4424161856         2.1276880422         1.4986359205         2.4930360838         4.1943528488        -2.1942073140
        0.2150000000        -0.5970822244         2.0728388651         1.4629033445         2.4955879613         3.2635303097        -2.9612890003
        0.2200000000        -0.7479184115         2.0199884398         1.4322754222         2.5211067359         2.4656824189        -3.7093761536
        0.2250000000        -0.8939572413         1.9694007601         1.3761242314         2.5108992261         1.0029612860        -4.4336703342
        0.2300000000        -1.0342619803         1.9213208516         1.3352870017         2.5262104908        -0.0608359017        -5.1295257174
        0.2350000000        -1.1679326746         1.8759750187         1.3276300211         2.5185548584        -0.2602978743        -5.7924788928
        0.2400000000        -1.2941119231         1.8335711240         1.3250776943         2.5134511035        -0.3267851986        -6.4182774940
        0.2450000000        -1.4119903771         1.7942988817         1.2331939274         2.5134511035        -2.7203288707        -7.0029074743
        0.2500000000        -1.5208119312         1.7583301538         1.2536125423         2.5108992261        -2.1884302769        -7.5426188540
        0.2550000000        -1.6198785737         1.7258192354         1.2638218497         2.4955879613        -1.9224809800        -8.0339497739
        0.2600000000        -1.7085548634         1.6969031248         1.2051183320         2.4879323289        -3.4516894372        -8.4737487005
        0.2650000000        -1.7862720060         1.6717017720         1.2127753126         2.4777248191        -3.2522274645        -8.8591946410
        0.2700000000        -1.8525315020         1.6503183010         1.2051183320         2.4649654318        -3.4516894372        -9.1878152375
        0.2750000000        -1.9069083446         1.6328392051         1.1489671412         2.4419985347        -4.9144105702        -9.4575026261
        0.2800000000        -1.9490537456         1.6193345127         1.2000136783         2.4368947797        -3.5846640857        -9.6665269565
        0.2850000000        -1.9786973725         1.6098579218         1.1515194680         2.4088241277        -4.8479232460        -9.8135474886
        0.2900000000        -1.9956490829         1.6044469051         1.1413101606         2.3935128629        -5.1138725429        -9.8976211916
        0.2950000000        -1.9998001438         1.6031227823         1.1336531800         2.3782015982        -5.3133345156        -9.9182087934
        0.3000000000        -1.9911239292         1.6058907621         1.1285485263         2.3603384560        -5.4463091640        -9.8751782393
        0.3050000000        -1.9696760907         1.6127399524         1.1464148143         2.3450271912        -4.9808978944        -9.7688055393
        0.3100000000        -1.9355942007         1.6236433388         1.1157868920         2.3169565392        -5.7787457852        -9.5997729976
        0.3150000000        -1.8890968699         1.6385577319         1.1030252578         2.2965415195        -6.1111824063        -9.3691648360
        0.3200000000        -1.8304823452         1.6574236835         1.1157868920         2.2710227449        -5.7787457852        -9.0784602395
        0.3250000000        -1.7601265966         1.6801653712         1.1055775846         2.2506077252        -6.0446950821        -8.7295238684
        0.3300000000        -1.6784809053         1.7066904524         1.1081299115         2.2199851957        -5.9782077578        -8.3245938979
        0.3350000000        -1.5860689696         1.7368898884         1.1004729309         2.2097776859        -6.1776697305        -7.8662676618
        0.3400000000        -1.4834835455         1.7706377388         1.1106822383         2.1868107888        -5.9117204336        -7.3574849922
        0.3450000000        -1.3713826443         1.8077909301         1.0800543160         2.1510845043        -6.7095683243        -6.8015093629
        0.3500000000        -1.2504853127         1.8481889990         1.1106822383         2.1408769945        -5.9117204336        -6.2019069567
        0.3550000000        -1.1215670196         1.8916538160         1.1004729309         2.1179100974        -6.1776697305        -5.5625237906
        0.3600000000        -0.9854546831         1.9379892954         1.0826066429         2.0796319355        -6.6430810001        -4.8874610463
        0.3650000000        -0.8430213655         1.9869810990         1.1106822383         2.0694244256        -5.9117204336        -4.1810487645
        0.3700000000        -0.6951806739         2.0383963455         1.1030252578         2.0388018961        -6.1111824063        -3.4478180705
        0.3750000000        -0.5428808997         2.0919833406         1.1055775846         2.0158349990        -6.0446950821        -2.6924721103
        0.3800000000        -0.3870989361         2.1474713463         1.1285485263         1.9979718568        -5.4463091640        -1.9198558835
        0.3850000000        -0.2288340120         2.2045704160         1.1208915457         1.9801087146        -5.6457711367        -1.1349251659
        0.3900000000        -0.0691012827         2.2629713256         1.1106822383         1.9494861851        -5.9117204336        -0.3427147219
        0.3950000000         0.0910746814         2.7431434678         1.1413101606         1.9341749203        -5.1138725429         0.4516939898
        0.4000000000         0.2506664671         2.7930664142         1.1515194680         1.9188636556        -4.8479232460         1.2432054104
        0.4050000000         0.4086504083         2.8425171159         1.2000136783         1.8958967584        -3.5846640857         2.0267425649
        0.4100000000         0.5640131518         2.8911772131         1.2434032349         1.8831373711        -2.4543795738         2.7972796277
        0.4150000000         0.7157581578         2.9387328589         1.2893451183         1.8805854937        -1.2576077377         3.5498741592
        0.4200000000         0.8629120914         2.9848767750         1.3276300211         1.8856892486        -0.2602978743         4.2796988083
        0.4250000000         1.0045310663         3.0293102793         1.3454963091         1.8831373711         0.2051133952         4.9820722764
        0.4300000000         1.1397066989         3.0717452700         1.3378393285         1.8729298613         0.0056514226         5.6524893441
        0.4350000000         1.2675719351         3.1119061528         1.3301823480         1.8805854937        -0.1938105501         6.2866497695
        0.4400000000         1.3873066116         3.1495316958         1.3352870017         1.8729298613        -0.0608359017         6.8804858710
        0.4450000000         1.4981427168         3.1843767991         1.3327346748         1.8754817388        -0.1273232259         7.4301886182
        0.4500000000         1.5993693170         3.2162141635         1.4577986908         1.8805854937         3.1305556612         7.9322320645
        0.4550000000         1.6903371165         3.2448358481         1.4680079982         1.9010005134         3.3965049581         8.3833959632
        0.4600000000         1.7704626227         3.2700547003         1.4246184417         1.9061042683         2.2662204463         8.7807864234
        0.4650000000         1.8392318880         3.2917056499         1.4680079982         1.9163117781         3.3965049581         9.1218544718
        0.4700000000         1.8962038074         3.3096468544         1.5216068622         1.9290711654         4.7927387669         9.4044124030
        0.4750000000         1.9410129469         3.3237606869         1.4654556714         1.9367267978         3.3300176339         9.6266478116
        0.4800000000         1.9733718884         3.3339545573         1.5369208233         1.9673493273         5.1916627122         9.7871352178
        0.4850000000         1.9930730725         3.3401615604         1.5113975548         1.9826605920         4.5267894700         9.8848452105
        0.4900000000         1.9999901304         3.3423409455         1.5267115159         1.9979718568         4.9257134153         9.9191510508
        0.4950000000         1.9940786941         3.3404784019         1.5471301308         2.0183868765         5.4576120091         9.8898326912
        0.5000000000         1.9753766812         3.3345861598         1.5318161696         2.0362500187         5.0586880638         9.7970781880
        0.5050000000         1.9440040516         3.3247029043         1.5624440919         2.0617687933         5.8565359545         9.6414824945
        0.5100000000         1.9001620382         3.3108935037         1.5573394382         2.0872875679         5.7235613061         9.4240436447
        0.5150000000         1.8441318558         3.2932485548         1.5649964188         2.1025988326         5.9230232787         9.1461563520
        0.5200000000         1.7762728976         3.2718837483         1.5803103799         2.1332213621         6.3219472241         8.8096030631
        0.5250000000         1.6970204300         3.2469390610         1.5675487456         2.1510845043         5.9895106030         8.4165425244
        0.5300000000         1.6068828002         3.2185777807         1.5701010725         2.1766032789         6.0559979272         7.9694959360
        0.5350000000         1.5064381763         3.1869853729         1.5803103799         2.2021220535         6.3219472241         7.4713307791
        0.5400000000         1.3963308380         3.1523681983         1.5777580530         2.2250889506         6.2554598999         6.9252424241
        0.5450000000         1.2772670445         3.1149520922         1.5649964188         2.2404002154         5.9230232787         6.3347336337
        0.5500000000         1.1500105041         3.0749808174         1.5828627068         2.2710227449         6.3884345483         5.7035920961
        0.5550000000         1.0153774758         3.0327144034         1.5649964188         2.2939896420         5.9230232787         5.0358661289
        0.5600000000         0.8742315333         2.9884273839         1.5649964188         2.3093009068         5.9230232787         4.3358387126
        0.5650000000         0.7274780261         2.9424069486         1.5879673605         2.3373715588         6.5214091968         3.6080000182
        0.5700000000         0.5760582720         2.8949510208         1.5701010725         2.3654422109         6.0559979272         2.8570186060
        0.5750000000         0.4209435196         2.8463662774         1.5496824576         2.3807534756         5.5240993334         2.0877114800
        0.5800000000         0.2631287182         2.7969661241         1.5547871113         2.3986166179         5.6570739818         1.3050131907
        0.5850000000         0.1036261358         2.7470686415         1.5573394382         2.4343429023         5.7235613061         0.5139441830
        0.5900000000        -0.0565411335         2.2675973515         1.5343684965         2.4445504121         5.1251753880        -0.2804214059
        0.5950000000        -0.2163457323         2.2091079784         1.5267115159         2.4598616769         4.9257134153        -1.0729882938
        0.6000000000        -0.3747626292         2.1518953778         1.4858742862         2.4879323289         3.8619162277        -1.8586727356
        0.6050000000        -0.5307756941         2.0962702852         1.4577986908         2.4930360838         3.1305556612        -2.6324351325
        0.6100000000        -0.6833842158         2.0425241581         1.4297230954         2.5083473486         2.3991950947        -3.3893123566
        0.6150000000        -0.8316093206         1.9909292361         1.3863335388         2.5160029810         1.2689105829        -4.1244495865
        0.6200000000        -0.9745002515         1.9417386994         1.3403916554         2.5185548584         0.0721387468        -4.8331314471
        0.6250000000        -1.1111404660         1.8951868956         1.3327346748         2.5185548584        -0.1273232259        -5.5108122554
        0.6300000000        -1.2406535160         1.8514896067         1.3454963091         2.5134511035         0.2051133952        -6.1531451777
        0.6350000000        -1.3622086684         1.8108443396         1.2765834840         2.5083473486        -1.5900443589        -6.7560101117
        0.6400000000        -1.4750262347         1.7734306212         1.2280892737         2.5057954711        -2.8533035192        -7.3155401137
        0.6450000000        -1.5783825716         1.7394102903         1.2765834840         2.4853804515        -1.5900443589        -7.8281462022
        0.6500000000        -1.6716147227         1.7089277748         1.2127753126         2.4802766965        -3.2522274645        -8.2905403789
        0.6550000000        -1.7541246711         1.6821103500         1.2229846200         2.4802766965        -2.9862781676        -8.6997567186
        0.6600000000        -1.8253831748         1.6590683725         1.2280892737         2.4675173092        -2.8533035192        -9.0531703938
        0.6650000000        -1.8849331620         1.6398954878         1.1591764486         2.4445504121        -4.6484612733        -9.3485145105
