% f=4.20Hz  n_cycles=5  N_total=238  dt=0.005000
% Amp=1.0000V  K_lin=7.165500
Time[s]              Vcmd[V]              Vc[V]                Vg[V]                Pot[V]               Omega[rad/s]         Omega_target[rad/s] 
        0.0000000000         0.0000000000         2.5000000000         1.3378393285         2.7941576240         0.0056514226         0.0000000000
        0.0050000000         0.1315643591         2.7886416331         1.3352870017         2.7890538691        -0.0608359017         0.9427244151
        0.0100000000         0.2608415063         2.8404739902         1.3327346748         2.7890538691        -0.1273232259         1.8690598133
        0.0150000000         0.3855839923         2.8913908961         1.3301823480         2.7890538691        -0.1938105501         2.7629020967
        0.0200000000         0.5036232016         2.9404327718         1.3429439823         2.7992613789         0.1386260710         3.6087120513
        0.0250000000         0.6129070537         2.9866235401         1.3276300211         2.7916057465        -0.2602978743         4.3917854930
        0.0300000000         0.7115356772         3.0289931902         1.3429439823         2.8018132564         0.1386260710         5.0985088950
        0.0350000000         0.7977944395         3.0666050308         1.3429439823         2.7992613789         0.1386260710         5.7165960565
        0.0400000000         0.8701837547         3.0985869523         1.4067521537         2.8043651338         1.8008091767         6.2353016941
        0.0450000000         0.9274451533         3.1241652135         1.4475893834         2.8094688888         2.8646063643         6.6456082462
        0.0500000000         0.9685831611         3.1426984233         1.4118568074         2.8145726437         1.9337838251         6.9403826411
        0.0550000000         0.9928826046         3.1537087035         1.4297230954         2.8247801535         2.3991950947         7.1145003030
        0.0600000000         0.9999210442         3.1569067393         1.4654556714         2.8349876633         3.3300176339         7.1649342422
        0.0650000000         0.9895761186         3.1522077241         1.4552463639         2.8400914183         3.0640683370         7.0908076778
        0.0700000000         0.9620276716         3.1397361471         1.4705603251         2.8579545605         3.4629922823         6.8934092808
        0.0750000000         0.9177546257         3.1198187840         1.4756649788         2.8732658252         3.5959669308         6.5761707703
        0.0800000000         0.8575266562         3.0929668214         1.4705603251         2.8809214576         3.4629922823         6.1446072550
        0.0850000000         0.7823908106         3.0598493944         1.4858742862         2.9038883547         3.8619162277         5.6062213532
        0.0900000000         0.6936533058         3.0212616332         1.5062929011         2.9294071293         4.3938148215         4.9703727628
        0.0950000000         0.5928568202         2.9780905036         1.4986359205         2.9421665166         4.1943528488         4.2481155449
        0.1000000000         0.4817536741         2.9312813465         1.4858742862         2.9549259039         3.8619162277         3.4520059518
        0.1050000000         0.3622753667         2.8818072908         1.4960835936         2.9753409236         4.1278655246         2.5958841401
        0.1100000000         0.2364989970         2.8306428634         1.4756649788         2.9778928011         3.5959669308         1.6946335632
        0.1150000000         0.1066111543         2.7787423388         1.5062929011         2.9957559433         4.3938148215         0.7639222260
        0.1200000000        -0.0251300954         2.2496043062         1.4858742862         3.0110672080         3.8619162277        -0.1800696989
        0.1250000000        -0.1564344650         2.1949233660         1.4654556714         3.0238265953         3.3300176339        -1.1209311592
        0.1300000000        -0.2850192625         2.1405043736         1.4246184417         3.0391378601         2.2662204463        -2.0423055252
        0.1350000000        -0.4086490747         2.0873298170         1.3837812120         3.0416897375         1.2024232586        -2.9281749450
        0.1400000000        -0.5251746300         2.0364080808         1.3633625971         3.0442416150         0.6705246648        -3.7631388110
        0.1450000000        -0.6325701619         1.9887533176         1.3301823480         3.0467934924        -0.1938105501        -4.5326814952
        0.1500000000        -0.7289686274         1.9453610110         1.3225253674         3.0365859826        -0.3932725228        -5.2234246998
        0.1550000000        -0.8126941644         1.9071795646         1.3403916554         3.0416897375         0.0721387468        -5.8233600352
        0.1600000000        -0.8822912264         1.8750788638         1.3403916554         3.0467934924         0.0721387468        -6.3220577830
        0.1650000000        -0.9365498867         1.8498174536         1.3429439823         3.0493453699         0.1386260710        -6.7108482135
        0.1700000000        -0.9745268728         1.8320106398         1.1923566977         3.0416897375        -3.7841260584        -6.9829723070
        0.1750000000        -0.9955619646         1.8221022756         1.2229846200         3.0212747179        -2.9862781676        -7.1336992574
        0.1800000000        -0.9992894726         1.8203430667         1.2408509080         3.0059634531        -2.5208668981        -7.1604087162
        0.1850000000        -0.9856445951         1.8267778087         1.2127753126         3.0008596982        -3.2522274645        -7.0626363465
        0.1900000000        -0.9548645447         1.8412430673         1.1821473903         2.9957559433        -4.0500753553        -6.8420818954
        0.1950000000        -0.9074844245         1.8633755837         1.1923566977         2.9702371687        -3.7841260584        -6.5025796440
        0.2000000000        -0.8443279255         1.8926303944         1.1872520440         2.9523740265        -3.9171007068        -6.0500317502
        0.2050000000        -0.7664930068         1.9283065853         1.1974613514         2.9447183941        -3.6511514099        -5.4923056403
        0.2100000000        -0.6753328081         1.9695779639         1.1846997172         2.9370627617        -3.9835880310        -4.8390972366
        0.2150000000        -0.5724321256         2.0155258013         1.1719380829         2.9140958646        -4.3160246522        -4.1017623959
        0.2200000000        -0.4595798606         2.0651711065         1.1923566977         2.8987845998        -3.7841260584        -3.2931194913
        0.2250000000        -0.3387379202         2.1175044900         1.1974613514         2.8885770900        -3.6511514099        -2.4272265675
        0.2300000000        -0.2120071099         2.1715123777         1.1949090246         2.8758177027        -3.7176387341        -1.5191369461
        0.2350000000        -0.0815906116         2.2261989939         1.2102229857         2.8630583154        -3.3187147888        -0.5846375272
        0.2400000000         0.0502443182         2.7565028302         1.2051183320         2.8502989281        -3.4516894372         0.3600256619
        0.2450000000         0.1812057636         2.8084354302         1.2204322931         2.8298839084        -3.0527654919         1.2984298993
        0.2500000000         0.3090169944         2.8600303462         1.2765834840         2.8171245211        -1.5900443589         2.2142612732
        0.2550000000         0.4314560457         2.9103474383         1.2867927914         2.8120207662        -1.3240950620         3.0915982953
        0.2600000000         0.5463943467         2.9584184877         1.3352870017         2.8171245211        -0.0608359017         3.9151886915
        0.2650000000         0.6518337253         3.0032668066         1.3531532897         2.8171245211         0.4045753679         4.6707145586
        0.2700000000         0.7459411454         3.0439316233         1.3403916554         2.8171245211         0.0721387468         5.3450412775
        0.2750000000         0.8270805743         3.0794969841         1.3225253674         2.8171245211        -0.3932725228         5.9264458550
        0.2800000000         0.8938414242         3.1091241990         1.3403916554         2.8145726437         0.0721387468         6.4048207248
        0.2850000000         0.9450630752         3.1320860206         1.3454963091         2.8094688888         0.2051133952         6.7718494652
        0.2900000000         0.9798550524         3.1477999334         1.4960835936         2.8273320310         4.1278655246         7.0211513779
        0.2950000000         0.9976125064         3.1558573747         1.4220661148         2.8349876633         2.1997331220         7.1483924143
        0.3000000000         0.9980267284         3.1560456310         1.4297230954         2.8426432957         2.3991950947         7.1513605226
        0.3050000000         0.9810905174         3.1483597059         1.4705603251         2.8579545605         3.4629922823         7.0300041027
        0.3100000000         0.9470983050         3.1330026028         1.4833219594         2.8783695801         3.7954289035         6.7864329044
        0.3150000000         0.8966410368         3.1103739844         1.4629033445         2.8809214576         3.2635303097         6.4248813491
        0.3200000000         0.8305958992         3.0810486995         1.4986359205         2.8987845998         4.1943528488         5.9516349157
        0.3250000000         0.7501110696         3.0457478391         1.4884266131         2.9140958646         3.9284035519         5.3749208694
        0.3300000000         0.6565857558         3.0053055657         1.4782173056         2.9345108842         3.6624542550         4.7047652328
        0.3350000000         0.5516458706         2.9606349116         1.4986359205         2.9523740265         4.1943528488         3.9528184860
        0.3400000000         0.4371157667         2.9126952026         1.4960835936         2.9549259039         4.1278655246         3.1321530259
        0.3450000000         0.3149865197         2.8624629595         1.4858742862         2.9778928011         3.8619162277         2.2570359066
        0.3500000000         0.1873813146         2.8109072865         1.4858742862         2.9906521883         3.8619162277         1.3426808097
        0.3550000000         0.0565185345         2.7589700365         1.4909789399         3.0110672080         3.9948908762         0.4049835588
        0.3600000000        -0.0753268055         2.2288035189         1.4654556714         3.0238265953         3.3300176339        -0.5397542250
        0.3650000000        -0.2058626088         2.1741088775         1.4756649788         3.0340341051         3.5959669308        -1.4751085231
        0.3700000000        -0.3328195445         2.1200463087         1.4195137880         3.0365859826         2.1332457978        -2.3848184463
        0.3750000000        -0.4539904997         2.0676102662         1.3914381925         3.0493453699         1.4018852313        -3.2530689259
        0.3800000000        -0.5672689491         2.0178139407         1.3761242314         3.0595528797         1.0029612860        -4.0647656550
        0.3850000000        -0.6706855765         1.9716674829         1.3352870017         3.0544491248        -0.0608359017        -4.8057974987
        0.3900000000        -0.7624425110         1.9301519835         1.3250776943         3.0544491248        -0.3267851986        -5.4632818127
        0.3950000000        -0.8409445823         1.8941897602         1.3429439823         3.0544491248         0.1386260710        -6.0257884045
        0.4000000000        -0.9048270525         1.8646121598         1.3403916554         3.0544491248         0.0721387468        -6.4835382444
        0.4050000000        -0.9529793415         1.8421267846         1.2561648691         3.0442416150        -2.1219429527        -6.8285734716
        0.4100000000        -0.9845643345         1.8272866585         1.2102229857         3.0340341051        -3.3187147888        -7.0548957391
        0.4150000000        -0.9990329347         1.8204641736         1.2459555617         3.0238265953        -2.3878922496        -7.1585704934
        0.4200000000        -0.9961336091         1.8218325529         1.2076706589         3.0110672080        -3.3852021130        -7.1377953763
        0.4250000000        -0.9759167619         1.8313569501         1.2000136783         3.0110672080        -3.5846640857        -6.9929315577
        0.4300000000        -0.9387338577         1.8487962539         1.2051183320         2.9932040658        -3.4516894372        -6.7264974570
        0.4350000000        -0.8852313113         1.8737153792         1.1872520440         2.9727890461        -3.9171007068        -6.3431249614
        0.4400000000        -0.8163392507         1.9055065854         1.2025660052         2.9753409236        -3.5181767615        -5.8494789010
        0.4450000000        -0.7332553462         1.9434174435         1.2051183320         2.9549259039        -3.4516894372        -5.2541411834
        0.4500000000        -0.6374239897         1.9865826232         1.1770427366         2.9370627617        -4.1830500037        -4.5674615985
        0.4550000000        -0.5305111843         2.0340567284         1.1872520440         2.9217514970        -3.9171007068        -3.8013778911
        0.4600000000        -0.4143755810         2.0848458444         1.1949090246         2.9038883547        -3.7176387341        -2.9692082256
        0.4650000000        -0.2910361668         2.1379361201         1.1795950634         2.8860252125        -4.1165626795        -2.0854196534
        0.4700000000        -0.1626371652         2.1923184053         1.2076706589         2.8860252125        -3.3852021130        -1.1653766072
        0.4750000000        -0.0314107591         2.2470085855         1.1974613514         2.8605064379        -3.6511514099        -0.2250737942
        0.4800000000         0.1003617149         2.7762683227         1.2076706589         2.8579545605        -3.3852021130         0.7191418678
        0.4850000000         0.2303894267         2.8281806726         1.2204322931         2.8400914183        -3.0527654919         1.6508554369
        0.4900000000         0.3564118787         2.8794015548         1.2918974451         2.8375395408        -1.1911204135         2.5538693169
        0.4950000000         0.4762382037         2.9289781182         1.3046590794         2.8298839084        -0.8586837924         3.4124848484
        0.5000000000         0.5877852523         2.9759363474         1.3761242314         2.8273320310         1.0029612860         4.2117752253
        0.5050000000         0.6891138084         3.0193024850         1.3480486360         2.8298839084         0.2716007195         4.9378449940
        0.5100000000         0.7784623016         3.0581292029         1.3378393285         2.8298839084         0.0056514226         5.5780716219
        0.5150000000         0.8542774317         3.0915260124         1.3301823480         2.8273320310        -0.1938105501         6.1213249368
        0.5200000000         0.9152411726         3.1186926307         1.3327346748         2.8222282761        -0.1273232259         6.5581606224
        0.5250000000         0.9602936857         3.1389531687         1.3761242314         2.8375395408         1.0029612860         6.8809844047
        0.5300000000         0.9886517447         3.1517882619         1.4858742862         2.8400914183         3.8619162277         7.0841840769
        0.5350000000         0.9998223524         3.1568618693         1.4271707685         2.8579545605         2.3327077705         7.1642270660
        0.5400000000         0.9936113105         3.1540396181         1.4450370565         2.8630583154         2.7981190401         7.1197218455
        0.5450000000         0.9701265965         3.1433963633         1.4654556714         2.8681620703         3.3300176339         6.9514421271
        0.5500000000         0.9297764859         3.1252119606         1.4731126519         2.8860252125         3.5294796066         6.6623134096
        0.5550000000         0.8732624548         3.0999558155         1.4705603251         2.9013364773         3.4629922823         6.2573621199
        0.5600000000         0.8015669849         3.0682622036         1.5088452279         2.9217514970         4.4603021457         5.7436282301
        0.5650000000         0.7159364830         3.0308993246         1.4782173056         2.9294071293         3.6624542550         5.1300428691
        0.5700000000         0.6178596131         2.9887353818         1.4705603251         2.9421665166         3.4629922823         4.4272730576
        0.5750000000         0.5090414158         2.9427047272         1.4986359205         2.9600296588         4.1943528488         3.6475362646
        0.5800000000         0.3913736668         2.8937764385         1.4960835936         2.9778928011         4.1278655246         2.8043880097
        0.5850000000         0.2669019893         2.8429268537         1.4782173056         2.9906521883         3.6624542550         1.9124862045
        0.5900000000         0.1377902907         2.7911167784         1.4986359205         3.0136190855         4.1943528488         0.9873363279
        0.5950000000         0.0062831440         2.5000000000         1.4577986908         3.0110672080         3.1305556612         0.0450218681
        0.6000000000        -0.1253332336         2.2079548809         1.4680079982         3.0263784728         3.3965049581        -0.8980752851
        0.6050000000        -0.2547707257         2.1533857384         1.4577986908         3.0442416150         3.1305556612        -1.8255596349
        0.6100000000        -0.3797790955         2.0998240935         1.4348277491         3.0544491248         2.5321697432        -2.7213071090
        0.6150000000        -0.4981851053         2.0482738293         1.4041998268         3.0621047572         1.7343218525        -3.5697453723
        0.6200000000        -0.6079302977         1.9997497820         1.3786765582         3.0697603896         1.0694486102        -4.3561245481
        0.6250000000        -0.7071067812         1.9552543189         1.3608102703         3.0723122670         0.6040373406        -5.0667736406
        0.6300000000        -0.7939903986         1.9157498133         1.3429439823         3.0672085121         0.1386260710        -5.6893382015
        0.6350000000        -0.8670707012         1.8821278043         1.3352870017         3.0799678994        -0.0608359017        -6.2129951092
        0.6400000000        -0.9250772068         1.8551763174         1.2382985811         3.0697603896        -2.5873542223        -6.6286407256
        0.6450000000        -0.9670014878         1.8355475078         1.2765834840         3.0621047572        -1.5900443589        -6.9290491606
        0.6500000000        -0.9921147013         1.8237283073         1.2408509080         3.0467934924        -2.5208668981        -7.1089978923
        0.6550000000        -0.9999802609         1.8200169341         1.2382985811         3.0391378601        -2.5873542223        -7.1653585592
        0.6600000000        -0.9904614257         1.8245078256         1.2153276394         3.0340341051        -3.1857401403        -7.0971513458
        0.6650000000        -0.9637236783         1.8370867578         1.2178799663         3.0161709629        -3.1192528161        -6.9055620168
