% f=2.90Hz  n_cycles=5  N_total=344  dt=0.005000
% Amp=1.0000V  K_lin=8.382100
Time[s]              Vcmd[V]              Vc[V]                Vg[V]                Pot[V]               Omega[rad/s]         Omega_target[rad/s] 
        0.0000000000         0.0000000000         2.5000000000         1.3301823480         1.6662277871        -0.1854996346         0.0000000000
        0.0050000000         0.0909802039         2.7825287797         1.3378393285         1.6713315420         0.0139623381         0.7626051671
        0.0100000000         0.1812057636         2.8258966983         1.3352870017         1.6687796646        -0.0525249861         1.5188848313
        0.0150000000         0.2699282945         2.8692412979         1.3403916554         1.6738834195         0.0804496623         2.2625659570
        0.0200000000         0.3564118787         2.9121928453         1.3301823480         1.6636759097        -0.1854996346         2.9874800086
        0.0250000000         0.4399391699         2.9543661540         1.3352870017         1.6687796646        -0.0525249861         3.6876141156
        0.0300000000         0.5198173426         2.9953632488         1.3327346748         1.6636759097        -0.1190123104         4.3571609476
        0.0350000000         0.5953838397         3.0347768833         1.3352870017         1.6687796646        -0.0525249861         4.9905668828
        0.0400000000         0.6660118674         3.0721950182         1.3633625971         1.6687796646         0.6788355804         5.5825780740
        0.0450000000         0.7311155947         3.1072063373         1.4705603251         1.6866428068         3.4713031979         6.1282840266
        0.0500000000         0.7901550124         3.1394068211         1.4118568074         1.6840909293         1.9420947407         6.6231583292
        0.0550000000         0.8426404122         3.1684073160         1.4169614611         1.6917465617         2.0750693891         7.0630961988
        0.0600000000         0.8881364488         3.1938419350         1.4884266131         1.7096097039         3.9367144675         7.4444485276
        0.0650000000         0.9262657510         3.2153770065         1.4450370565         1.7096097039         2.8064299556         7.7640521516
        0.0700000000         0.9567120516         3.2327201657         1.4654556714         1.7325766011         3.3383285494         8.0192560874
        0.0750000000         0.9792228106         3.2456290813         1.5062929011         1.7402322334         4.4021257370         8.2079435209
        0.0800000000         0.9936113105         3.2539192452         1.4654556714         1.7504397433         3.3383285494         8.3285493659
        0.0850000000         0.9997582044         3.2574702518         1.4986359205         1.7708547629         4.2026637644         8.3800732454
        0.0900000000         0.9976125064         3.2562300602         1.4986359205         1.7836141502         4.2026637644         8.3620877896
        0.0950000000         0.9871920140         3.2502168777         1.5139498816         1.8116848023         4.6015877097         8.2747421805
        0.1000000000         0.9685831611         3.2395184981         1.5165022085         1.8295479445         4.6680750340         8.1187609149
        0.1050000000         0.9419403007         3.2242891535         1.5394731502         1.8423073318         5.2664609520         7.8954377946
        0.1100000000         0.9074844245         3.2047441529         1.5190545354         1.8601704740         4.7345623582         7.6066251949
        0.1150000000         0.8655013303         3.1811527525         1.5343684965         1.8780336162         5.1334863035         7.2547187003
        0.1200000000         0.8163392507         3.1538298080         1.5369208233         1.8958967584         5.1999736278         6.8426372334
        0.1250000000         0.7604059656         3.1231267912         1.5445778039         1.9214155330         5.3994356004         6.3737988443
        0.1300000000         0.6981654190         3.0894227140         1.5343684965         1.9367267978         5.1334863035         5.8520923585
        0.1350000000         0.6301338712         3.0531154211         1.5394731502         1.9596936949         5.2664609520         5.2818451217
        0.1400000000         0.5568756165         3.0146135907         1.5343684965         1.9724530822         5.1334863035         4.6677871050
        0.1450000000         0.4789983026         2.9743296673         1.5369208233         1.9954199793         5.1999736278         4.0150116726
        0.1500000000         0.3971478906         2.9326738332         1.5292638428         2.0081793666         5.0005116551         3.3289333341
        0.1550000000         0.3120032967         2.8900490353         1.5318161696         2.0336981412         5.0669989793         2.6152428332
        0.1600000000         0.2242707609         2.8468470166         1.5139498816         2.0464575285         4.6015877097         1.8798599454
        0.1650000000         0.1346779895         2.8034452542         1.5062929011         2.0643206707         4.4021257370         1.1288843758
        0.1700000000         0.0439681183         2.5000000000         1.5113975548         2.0847356904         4.5351003855         0.3685451646
        0.1750000000        -0.0471064507         2.5000000000         1.4986359205         2.1051507101         4.2026637644        -0.3948509805
        0.1800000000        -0.1377902907         2.1740686427         1.4909789399         2.1179100974         4.0032017917        -1.1549719955
        0.1850000000        -0.2273312156         2.1288348485         1.4807696325         2.1332213621         3.7372524948        -1.9055129827
        0.1900000000        -0.3149865197         2.0838378118         1.4680079982         2.1459807494         3.4048158736        -2.6402485064
        0.1950000000        -0.4000291372         2.0394716873         1.4246184417         2.1536363818         2.2745313618        -3.3530842312
        0.2000000000        -0.4817536741         1.9961448232         1.3837812120         2.1561882593         1.2107341742        -4.0381074717
        0.2050000000        -0.5594822581         1.9542764741         1.3480486360         2.1663957691         0.2799116350        -4.6896362356
        0.2100000000        -0.6325701619         1.9142925872         1.3225253674         2.1663957691        -0.3849616073        -5.3022663542
        0.2150000000        -0.7004111508         1.8766205727         1.3148683868         2.1587401367        -0.5844235800        -5.8709163070
        0.2200000000        -0.7624425110         1.8416830163         1.2357462543         2.1587401367        -2.6455306310        -6.3908693715
        0.2250000000        -0.8181497174         1.8098903642         1.2689265034         2.1587401367        -1.7811954160        -6.8578127464
        0.2300000000        -0.8670707012         1.7816327013         1.2510602154         2.1510845043        -2.2466066856        -7.2678733242
        0.2350000000        -0.9087996824         1.7572708581         1.2102229857         2.1332213621        -3.3104038732        -7.6176498175
        0.2400000000        -0.9429905359         1.7371271983         1.2076706589         2.1204619748        -3.3768911975        -7.9042409709
        0.2450000000        -0.9693596624         1.7214765520         1.2051183320         2.1153582199        -3.4433785217        -8.1252696262
        0.2500000000        -0.9876883406         1.7105378395         1.1898043709         2.0949432002        -3.8423024671        -8.2789024397
        0.2550000000        -0.9978245415         1.7044669599         1.1693857560         2.0694244256        -4.3742010609        -8.3638650890
        0.2600000000        -0.9996841893         1.7033514846         1.1642811023         2.0617687933        -4.5071757093        -8.3794528430
        0.2650000000        -0.9932518590         1.7072075865         1.1591764486         2.0362500187        -4.6401503578        -8.3255364077
        0.2700000000        -0.9785809043         1.7159794660         1.1566241217         2.0336981412        -4.7066376820        -8.2025629981
        0.2750000000        -0.9557930148         1.7295413226         1.1515194680         2.0081793666        -4.8396123305        -8.0115526293
        0.2800000000        -0.9250772068         1.7477017037         1.1413101606         1.9852124695        -5.1055616274        -7.7540896554
        0.2850000000        -0.8866882557         1.7702098686         1.1336531800         1.9699012047        -5.3050236000        -7.4323096281
        0.2900000000        -0.8409445823         1.7967636684         1.1566241217         1.9596936949        -4.7066376820        -7.0488815833
        0.2950000000        -0.7882256120         1.8270183741         1.1413101606         1.9341749203        -5.1055616274        -6.6069859023
        0.3000000000        -0.7289686274         1.8605958864         1.1336531800         1.9086561457        -5.3050236000        -6.1102879319
        0.3050000000        -0.6636651414         1.8970938231         1.1515194680         1.9010005134        -4.8396123305        -5.5629075820
        0.3100000000        -0.5928568202         1.9360940775         1.1744904097         1.8729298613        -4.2412264124        -4.9693851523
        0.3150000000        -0.5171309901         1.9771705617         1.1489671412         1.8576185965        -4.9060996547        -4.3346436724
        0.3200000000        -0.4371157667         2.0198959631         1.1515194680         1.8397554543        -4.8396123305        -3.6639480676
        0.3250000000        -0.3534748438         2.0638474467         1.1515194680         1.8218923121        -4.8396123305        -2.9628614880
        0.3300000000        -0.2669019893         2.1086113160         1.1642811023         1.8065810474        -4.5071757093        -2.2371991647
        0.3350000000        -0.1781152903         2.1537867021         1.1617287755         1.7861660277        -4.5736630336        -1.4929801745
        0.3400000000        -0.0878511966         2.1989883869         1.1795950634         1.7810622728        -4.1082517640        -0.7363775146
        0.3450000000         0.0031415875         2.5000000000         1.1795950634         1.7631991306        -4.1082517640         0.0263331005
        0.3500000000         0.0941083133         2.7840207189         1.1872520440         1.7453359884        -3.9087897913         0.7888252931
        0.3550000000         0.1842944486         2.8273938030         1.1974613514         1.7223690912        -3.6428404944         1.5447744973
        0.3600000000         0.2729519355         2.8707310989         1.2485078886         1.7198172138        -2.3130940098         2.2879104187
        0.3650000000         0.3593453960         2.9136623045         1.2893451183         1.7070578265        -1.2492968222         3.0120690439
        0.3700000000         0.4427582310         2.9558017433         1.3480486360         1.7096097039         0.2799116350         3.7112437684
        0.3750000000         0.5224985647         2.9967510567         1.3480486360         1.7121615814         0.2799116350         4.3796352193
        0.3800000000         0.5979049831         3.0361027526         1.3480486360         1.7070578265         0.2799116350         5.0116993585
        0.3850000000         0.6683520202         3.0734447188         1.3403916554         1.7147134588         0.0804496623         5.6021934682
        0.3900000000         0.7332553462         3.1083657754         1.3480486360         1.7198172138         0.2799116350         6.1462196376
        0.3950000000         0.7920766142         3.1404622839         1.3378393285         1.7121615814         0.0139623381         6.6392653883
        0.4000000000         0.8443279255         3.1693457491         1.4680079982         1.7223690912         3.4048158736         7.0772411044
        0.4050000000         0.8895758764         3.1946512440         1.4424847297         1.7274728461         2.7399426314         7.4565139534
        0.4100000000         0.9274451533         3.2160463704         1.4041998268         1.7300247236         1.7426327680         7.7739380198
        0.4150000000         0.9576216460         3.2332403473         1.4756649788         1.7478878658         3.6042778463         8.0268803986
        0.4200000000         0.9798550524         3.2459927148         1.4935312668         1.7606472531         4.0696891159         8.2132430346
        0.4250000000         0.9939609555         3.2541210809         1.4475893834         1.7683028855         2.8729172798         8.3314801247
        0.4300000000         0.9998223524         3.2575073392         1.5037405742         1.7887179052         4.3356384128         8.3806109399
        0.4350000000         0.9973906252         3.2561018544         1.5241591891         1.8091329248         4.8675370066         8.3602279598
        0.4400000000         0.9866859442         3.2499252589         1.4858742862         1.8142366797         3.8702271432         8.2705002529
        0.4450000000         0.9677971003         3.2390677036         1.5190545354         1.8320998220         4.7345623582         8.1121720747
        0.4500000000         0.9408807690         3.2236856276         1.5241591891         1.8627223515         4.8675370066         7.8865566935
        0.4550000000         0.9061602102         3.2039963273         1.5139498816         1.8729298613         4.6015877097         7.5955254981
        0.4600000000         0.8639234172         3.1802707757         1.5292638428         1.8907930035         5.0005116551         7.2414924753
        0.4650000000         0.8145207271         3.1528252426         1.5343684965         1.9112080232         5.1334863035         6.8273941864
        0.4700000000         0.7583619153         3.1220122995         1.5267115159         1.9316230429         4.9340243309         6.3566654101
        0.4750000000         0.6959127966         3.0882117497         1.5420254771         1.9545899400         5.3329482762         5.8332106523
        0.4800000000         0.6276913613         3.0518219394         1.5216068622         1.9699012047         4.8010496824         5.2613717595
        0.4850000000         0.5542634787         3.0132517889         1.5267115159         1.9826605920         4.9340243309         4.6458919051
        0.4900000000         0.4762382037         2.9729137587         1.5369208233         2.0107312441         5.1999736278         3.9918762470
        0.4950000000         0.3942627243         2.9312178585         1.5267115159         2.0234906314         4.9340243309         3.3047495817
        0.5000000000         0.3090169944         2.8885667094         1.5139498816         2.0362500187         4.6015877097         2.5902113486
        0.5050000000         0.2212080928         2.8453516084         1.5139498816         2.0592169158         4.6015877097         1.8541883546
        0.5100000000         0.1315643591         2.8019494964         1.5062929011         2.0770800580         4.4021257370         1.1027856143
        0.5150000000         0.0408293520         2.5000000000         1.5062929011         2.0923913228         4.4021257370         0.3422357112
        0.5200000000        -0.0502443182         2.5000000000         1.5037405742         2.1204619748         4.3356384128        -0.4211528994
        0.5250000000        -0.1409012319         2.1725090828         1.4782173056         2.1230138523         3.6707651706        -1.1810482162
        0.5300000000        -0.2303894267         2.1272770673         1.4731126519         2.1434288720         3.5377905221        -1.9311472133
        0.5350000000        -0.3179666338         2.0822951355         1.4399324028         2.1561882593         2.6734553072        -2.6652281214
        0.5400000000        -0.4029064357         2.0379579770         1.4041998268         2.1612920142         1.7426327680        -3.3772020348
        0.5450000000        -0.4845042908         1.9946743758         1.3608102703         2.1663957691         0.6123482561        -4.0611634163
        0.5500000000        -0.5620833779         1.9528638931         1.3148683868         2.1587401367        -0.5844235800        -4.7114390815
        0.5550000000        -0.6350002094         1.9129526197         1.3582579434         2.1740514015         0.5458609319        -5.3226352555
        0.5600000000        -0.7026499698         1.8753679100         1.3352870017         2.1587401367        -0.0525249861        -5.8896823119
        0.5650000000        -0.7644715314         1.8405320587         1.3072114063         2.1663957691        -0.7838855526        -6.4078768235
        0.5700000000        -0.8199521093         1.8088549513         1.2025660052         2.1612920142        -3.5098658459        -6.8729205756
        0.5750000000        -0.8686315144         1.7807258151         1.2663741766         2.1459807494        -1.8476827403        -7.2809562172
        0.5800000000        -0.9101059707         1.7565043079         1.2408509080         2.1459807494        -2.5125559825        -7.6285992569
        0.5850000000        -0.9440314641         1.7365113029         1.1795950634         2.1230138523        -4.1082517640        -7.9129661356
        0.5900000000        -0.9701265965         1.7210198363         1.1974613514         2.1077025875        -3.6428404944        -8.1316981444
        0.5950000000        -0.9881749191         1.7102467645         1.1974613514         2.0974950777        -3.6428404944        -8.2829809895
        0.6000000000        -0.9980267284         1.7043457070         1.1693857560         2.0847356904        -4.3742010609        -8.3655598404
        0.6050000000        -0.9996003077         1.7034018106         1.1693857560         2.0617687933        -4.3742010609        -8.3787497388
        0.6100000000        -0.9928826046         1.7074287613         1.1540717949         2.0490094060        -4.7731250062        -8.3224412798
        0.6150000000        -0.9779293398         1.7163682983         1.1540717949         2.0285943863        -4.7731250062        -8.1971015194
        0.6200000000        -0.9548645447         1.7300922722         1.1540717949         2.0158349990        -4.7731250062        -8.0037701005
        0.6250000000        -0.9238795325         1.7484070696         1.1566241217         1.9954199793        -4.7066376820        -7.7440506295
        0.6300000000        -0.8852313113         1.7710600390         1.1259961995         1.9724530822        -5.5044855727        -7.4200973747
        0.6350000000        -0.8392404527         1.7977474126         1.1515194680         1.9596936949        -4.8396123305        -7.0345973982
        0.6400000000        -0.7862884321         1.8281231566         1.1387578337         1.9341749203        -5.1720489516        -6.5907482670
        0.6450000000        -0.7268144655         1.8618081852         1.1413101606         1.9163117781        -5.1055616274        -6.0922315312
        0.6500000000        -0.6613118653         1.8983994355         1.1285485263         1.8958967584        -5.4379982485        -5.5431821863
        0.6550000000        -0.5903239494         1.9374784019         1.1540717949         1.8780336162        -4.7731250062        -4.9481543759
        0.6600000000        -0.5144395338         1.9786188479         1.1387578337         1.8652742289        -5.1720489516        -4.3120836161
        0.6650000000        -0.4342880493         2.0213935263         1.1591764486         1.8474110867        -4.6401503578        -3.6402458580
