% f=2.30Hz  n_cycles=5  N_total=434  dt=0.005000
% Amp=1.0000V  K_lin=7.165500
Time[s]              Vcmd[V]              Vc[V]                Vg[V]                Pot[V]               Omega[rad/s]         Omega_target[rad/s] 
        0.0000000000         0.0000000000         2.5000000000         1.3352870017         2.6563562412        -0.0608359017         0.0000000000
        0.0050000000         0.0721937719         2.7651430263         1.3429439823         2.6640118736         0.1386260710         0.5173044724
        0.0100000000         0.1440107826         2.7935918573         1.3301823480         2.6512524863        -0.1938105501         1.0319092624
        0.0150000000         0.2150762370         2.8220185887         1.3301823480         2.6512524863        -0.1938105501         1.5411287763
        0.0200000000         0.2850192625         2.8502720050         1.3352870017         2.6589081187        -0.0608359017         2.0423055252
        0.0250000000         0.3534748438         2.8781972836         1.3301823480         2.6512524863        -0.1938105501         2.5328239931
        0.0300000000         0.4200857284         2.9056367412         1.3327346748         2.6512524863        -0.1273232259         3.0101242869
        0.0350000000         0.4845042908         2.9324307011         1.3301823480         2.6512524863        -0.1938105501         3.4717154960
        0.0400000000         0.5463943467         2.9584184877         1.3454963091         2.6589081187         0.2051133952         3.9151886915
        0.0450000000         0.6054329074         2.9834395520         1.4424847297         2.6691156285         2.7316317159         4.3382294978
        0.0500000000         0.6613118653         3.0073347280         1.3939905194         2.6640118736         1.4683725555         4.7386301710
        0.0550000000         0.7137396023         3.0299476137         1.4067521537         2.6818750158         1.8008091767         5.1143011201
        0.0600000000         0.7624425110         3.0511260667         1.4220661148         2.6844268933         2.1997331220         5.4632818127
        0.0650000000         0.8071664232         3.0707237957         1.4322754222         2.6920825256         2.4656824189         5.7837510058
        0.0700000000         0.8476779361         3.0886020225         1.4322754222         2.6997381580         2.4656824189         6.0740362510
        0.0750000000         0.8837656301         3.1046311836         1.4629033445         2.7176013002         3.2635303097         6.3326226224
        0.0800000000         0.9152411726         3.1186926307         1.4629033445         2.7252569326         3.2635303097         6.5581606224
        0.0850000000         0.9419403007         3.1306802866         1.4552463639         2.7354644424         3.0640683370         6.7494732247
        0.0900000000         0.9637236783         3.1405022067         1.4756649788         2.7507757072         3.5959669308         6.9055620168
        0.0950000000         0.9804776234         3.1480819966         1.4858742862         2.7660869720         3.8619162277         7.0256124103
        0.1000000000         0.9921147013         3.1533600353         1.4782173056         2.7762944818         3.6624542550         7.1089978923
        0.1050000000         0.9985741811         3.1562944594         1.4884266131         2.7967095015         3.9284035519         7.1552832948
        0.1100000000         0.9998223524         3.1568618693         1.5113975548         2.8145726437         4.5267894700         7.1642270660
        0.1150000000         0.9958527012         3.1550577302         1.4884266131         2.8222282761         3.9284035519         7.1357825305
        0.1200000000         0.9866859442         3.1508964496         1.5113975548         2.8451951732         4.5267894700         7.0700981332
        0.1250000000         0.9723699204         3.1444111304         1.5088452279         2.8528508056         4.4603021457         6.9675166646
        0.1300000000         0.9529793415         3.1356530073         1.5062929011         2.8758177027         4.3938148215         6.8285734716
        0.1350000000         0.9286154021         3.1246905917         1.5165022085         2.8911289674         4.6597641184         6.6539936640
        0.1400000000         0.8994052516         3.1116085569         1.5139498816         2.9089921097         4.5932767942         6.4446883301
        0.1450000000         0.8655013303         3.0965064084         1.5267115159         2.9319590068         4.9257134153         6.2017497819
        0.1500000000         0.8270805743         3.0794969841         1.5369208233         2.9447183941         5.1916627122         5.9264458550
        0.1550000000         0.7843434919         3.0607048377         1.5241591891         2.9651334138         4.8592260911         5.6202132914
        0.1600000000         0.7375131174         3.0402645537         1.5113975548         2.9804446785         4.5267894700         5.2846502424
        0.1650000000         0.6868338465         3.0183190407         1.5445778039         3.0059634531         5.3911246849         4.9215079274
        0.1700000000         0.6325701619         2.9950178464         1.5139498816         3.0263784728         4.5932767942         4.5326814952
        0.1750000000         0.5750052520         2.9705155285         1.5241591891         3.0442416150         4.8592260911         4.1202001335
        0.1800000000         0.5144395338         2.9449701108         1.5267115159         3.0697603896         4.9257134153         3.6862164793
        0.1850000000         0.4511890844         2.9185416455         1.5369208233         3.0799678994         5.1916627122         3.2329953846
        0.1900000000         0.3855839923         2.8913908961         1.5190545354         3.1080385515         4.7262514427         2.7629020967
        0.1950000000         0.3179666338         2.8636781493         1.5241591891         3.1233498162         4.8592260911         2.2783899147
        0.2000000000         0.2486898872         2.8355621575         1.5139498816         3.1361092035         4.5932767942         1.7819873865
        0.2050000000         0.1781152903         2.8071992118         1.5088452279         3.1514204683         4.4603021457         1.2762851124
        0.2100000000         0.1066111543         2.7787423388         1.5088452279         3.1769392429         4.4603021457         0.7639222260
        0.2150000000         0.0345506414         2.7503406137         1.5088452279         3.1794911203         4.4603021457         0.2475726208
        0.2200000000        -0.0376901827         2.2444114147         1.5011882474         3.2101136498         4.2608401731        -0.2700690039
        0.2250000000        -0.1097343111         2.2144720823         1.4960835936         3.2203211597         4.1278655246        -0.7863012061
        0.2300000000        -0.1812057636         2.1845080834         1.4654556714         3.2330805470         3.3300176339        -1.2984298993
        0.2350000000        -0.2517315487         2.1546772298         1.4246184417         3.2458399342         2.2662204463        -1.8037824120
        0.2400000000        -0.3209436098         2.1251408911         1.3863335388         3.2534955666         1.2689105829        -2.2997214361
        0.2450000000        -0.3884807466         2.0960632202         1.3403916554         3.2611511990         0.0721387468        -2.7836587900
        0.2500000000        -0.4539904997         2.0676102662         1.3276300211         3.2534955666        -0.2602978743        -3.2530689259
        0.2550000000        -0.5171309901         2.0399489719         1.3454963091         3.2483918117         0.2051133952        -3.7055021098
        0.2600000000        -0.5775727034         2.0132460519         1.3378393285         3.2483918117         0.0056514226        -4.1385972064
        0.2650000000        -0.6350002094         1.9876667545         1.3327346748         3.2483918117        -0.1273232259        -4.5500940007
        0.2700000000        -0.6891138084         1.9633735122         1.2434032349         3.2407361793        -2.4543795738        -4.9378449940
        0.2750000000        -0.7396310950         1.9405244912         1.2561648691         3.2356324244        -2.1219429527        -5.2998266111
        0.2800000000        -0.7862884321         1.9192720578         1.2740311571         3.2356324244        -1.6565316831        -5.6341497605
        0.2850000000        -0.8288423269         1.8997611814         1.2459555617         3.2228730371        -2.3878922496        -5.9390696934
        0.2900000000        -0.8670707012         1.8821278043         1.2280892737         3.2101136498        -2.8533035192        -6.2129951092
        0.2950000000        -0.9007740506         1.8664972112         1.2255369469         3.2024580174        -2.9197908434        -6.4544964596
        0.3000000000        -0.9297764859         1.8529824364         1.2127753126         3.1845948752        -3.2522274645        -6.6623134096
        0.3050000000        -0.9539266506         1.8416827515         1.2153276394         3.1667317330        -3.1857401403        -6.8353614146
        0.3100000000        -0.9730985110         1.8326822763         1.2000136783         3.1616279781        -3.5846640857        -6.9727373804
        0.3150000000        -0.9871920140         1.8260487574         1.1898043709         3.1463167133        -3.8506133826        -7.0737243763
        0.3200000000        -0.9961336091         1.8218325529         1.1744904097         3.1259016937        -4.2495373279        -7.1377953763
        0.3250000000        -0.9998766325         1.8200658610         1.1949090246         3.1182460613        -3.7176387341        -7.1646160100
        0.3300000000        -0.9984015501         1.8207622178         1.1617287755         3.1054866740        -4.5819739491        -7.1540463073
        0.3350000000        -0.9917160601         1.8239162848         1.1821473903         3.0850716543        -4.0500753553        -7.1061414287
        0.3400000000        -0.9798550524         1.8295039328         1.1642811023         3.0697603896        -4.5154866249        -7.0211513779
        0.3450000000        -0.9628804266         1.8374826197         1.1770427366         3.0544491248        -4.1830500037        -6.8995196965
        0.3500000000        -0.9408807690         1.8477920481         1.1591764486         3.0340341051        -4.6484612733        -6.7418811499
        0.3550000000        -0.9139708903         1.8603550780         1.1693857560         3.0263784728        -4.3825119764        -6.5490584143
        0.3600000000        -0.8822912264         1.8750788638         1.1387578337         2.9932040658        -5.1803598671        -6.3220577830
        0.3650000000        -0.8460071057         1.8918561754         1.1719380829         2.9881003109        -4.3160246522        -6.0620639157
        0.3700000000        -0.8053078857         1.9105668625         1.1566241217         2.9727890461        -4.7149485975        -5.7704336551
        0.3750000000        -0.7604059656         1.9310794173         1.1642811023         2.9523740265        -4.5154866249        -5.4486889465
        0.3800000000        -0.7115356772         1.9532525940         1.1591764486         2.9345108842        -4.6484612733        -5.0985088950
        0.3850000000        -0.6589520623         1.9769370437         1.1617287755         2.9089921097        -4.5819739491        -4.7217210027
        0.3900000000        -0.6029295417         2.0019769290         1.1515194680         2.8911289674        -4.8479232460        -4.3202916310
        0.3950000000        -0.5437604828         2.0282114888         1.1515194680         2.8656101929        -4.8479232460        -3.8963157394
        0.4000000000        -0.4817536741         2.0554765270         1.1668334292         2.8554026830        -4.4489993006        -3.4520059518
        0.4050000000        -0.4172327137         2.0836058077         1.1591764486         2.8324357859        -4.6484612733        -2.9896810097
        0.4100000000        -0.3505343202         2.1124323424         1.1642811023         2.8171245211        -4.5154866249        -2.5117536713
        0.4150000000        -0.2820065759         2.1417895635         1.1591764486         2.7992613789        -4.6484612733        -2.0207181196
        0.4200000000        -0.2120071099         2.1715123777         1.1821473903         2.7890538691        -4.0500753553        -1.5191369461
        0.4250000000        -0.1409012319         2.2014381038         1.1821473903         2.7711907269        -4.0500753553        -1.0096277774
        0.4300000000        -0.0690600257         2.2314072948         1.1744904097         2.7507757072        -4.2495373279        -0.4948496143
        0.4350000000         0.0031415875         2.5000000000         1.2229846200         2.7431200748        -2.9862781676         0.0225110451
        0.4400000000         0.0753268055         2.7663783822         1.1974613514         2.7303606875        -3.6511514099         0.5397542250
        0.4450000000         0.1471189118         2.7948293412         1.2204322931         2.7252569326        -3.0527654919         1.0541805628
        0.4500000000         0.2181432414         2.8232517100         1.2587171960         2.7073937904        -2.0554556285         1.5631053962
        0.4550000000         0.2880291360         2.8514941024         1.2944497720         2.7022900355        -1.1246330893         2.0638727741
        0.4600000000         0.3564118787         2.8794015548         1.3123160600         2.6920825256        -0.6592218197         2.5538693169
        0.4650000000         0.4229345971         2.9068162786         1.3506009628         2.7048419129         0.3380880437         3.0305378554
        0.4700000000         0.4872501257         2.9335785318         1.3352870017         2.6997381580        -0.0608359017         3.4913907759
        0.4750000000         0.5490228180         2.9595276200         1.3276300211         2.6920825256        -0.2602978743         3.9340230024
        0.4800000000         0.6079302977         2.9845030275         1.3327346748         2.6946344031        -0.1273232259         4.3561245481
        0.4850000000         0.6636651414         3.0083456785         1.3378393285         2.6997381580         0.0056514226         4.7554925709
        0.4900000000         0.7159364830         3.0308993246         1.3378393285         2.6920825256         0.0056514226         5.1300428691
        0.4950000000         0.7644715314         3.0520120442         1.4680079982         2.7099456679         3.3965049581         5.4778207584
        0.5000000000         0.8090169944         3.0715378373         1.4322754222         2.7227050552         2.4656824189         5.7970112732
        0.5050000000         0.8493404003         3.0893382911         1.4195137880         2.7303606875         2.1332457978         6.0859486381
        0.5100000000         0.8852313113         3.1052842815         1.4450370565         2.7405681974         2.7981190401         6.3431249614
        0.5150000000         0.9165024219         3.1192576726         1.4552463639         2.7482238297         3.0640683370         6.5671981042
        0.5200000000         0.9429905359         3.1311529703         1.4526940371         2.7558794621         2.9975810128         6.7569986849
        0.5250000000         0.9645574185         3.1408788777         1.4756649788         2.7711907269         3.5959669308         6.9115361820
        0.5300000000         0.9810905174         3.1483597059         1.4756649788         2.7813982367         3.5959669308         7.0300041027
        0.5350000000         0.9925035507         3.1535365874         1.4705603251         2.7967095015         3.4629922823         7.1117841929
        0.5400000000         0.9987369566         3.1563684489         1.4833219594         2.8120207662         3.7954289035         7.1564496626
        0.5450000000         0.9997582044         3.1568327050         1.4884266131         2.8222282761         3.9284035519         7.1637674139
        0.5500000000         0.9955619646         3.1549256453         1.4909789399         2.8451951732         3.9948908762         7.1336992574
        0.5550000000         0.9861701362         3.1506624977         1.5088452279         2.8630583154         4.4603021457         7.0664021111
        0.5600000000         0.9716317329         3.1440771672         1.5011882474         2.8732658252         4.2608401731         6.9622271822
        0.5650000000         0.9520226269         3.1352216595         1.5062929011         2.8860252125         4.3938148215         6.8217181334
        0.5700000000         0.9274451533         3.1241652135         1.5037405742         2.9064402322         4.3273274973         6.6456082462
        0.5750000000         0.8980275758         3.1109931767         1.5139498816         2.9217514970         4.5932767942         6.4348165941
        0.5800000000         0.8639234172         3.0958056662         1.5088452279         2.9396146392         4.4603021457         6.1904432459
        0.5850000000         0.8253106587         3.0787160637         1.5190545354         2.9625815363         4.7262514427         5.9137635249
        0.5900000000         0.7823908106         3.0598493944         1.5165022085         2.9778928011         4.6597641184         5.6062213532
        0.5950000000         0.7353878608         3.0393406401         1.5292638428         2.9983078207         4.9922007396         5.2694217164
        0.6000000000         0.6845471059         3.0173330328         1.5165022085         3.0212747179         4.6597641184         4.9051222875
        0.6050000000         0.6301338712         2.9939763715         1.5241591891         3.0442416150         4.8592260911         4.5152242540
        0.6100000000         0.5724321256         2.9694253959         1.5165022085         3.0570010023         4.6597641184         4.1017623959
        0.6150000000         0.5117430001         2.9438382471         1.5267115159         3.0774160220         4.9257134153         3.6668944673
        0.6200000000         0.4483832161         2.9173750347         1.5267115159         3.1029347965         4.9257134153         3.2128899349
        0.6250000000         0.3826834324         2.8901965252         1.5037405742         3.1080385515         4.3273274973         2.7421181346
        0.6300000000         0.3149865197         2.8624629595         1.5216068622         3.1310054486         4.7927387669         2.2570359066
        0.6350000000         0.2456457712         2.8343330016         1.5113975548         3.1514204683         4.5267894700         1.7601747735
        0.6400000000         0.1750230590         2.8059628165         1.5062929011         3.1667317330         4.3938148215         1.2541277291
        0.6450000000         0.1034869453         2.7775052722         1.5011882474         3.1820429978         4.2608401731         0.7415357062
        0.6500000000         0.0314107591         2.7491092584         1.4935312668         3.1973542625         4.0613782004         0.2250737942
        0.6550000000        -0.0408293520         2.2431123165         1.5037405742         3.2126655273         4.3273274973        -0.2925627216
        0.6600000000        -0.1128563849         2.2131686853         1.4858742862         3.2305286695         3.8619162277        -0.8086724258
        0.6650000000        -0.1842944486         2.1832071656         1.4475893834         3.2407361793         2.8646063643        -1.3205618712
