% f=1.45Hz  n_cycles=5  N_total=689  dt=0.005000
% Amp=2.0000V  K_lin=4.959600
Time[s]              Vcmd[V]              Vc[V]                Vg[V]                Pot[V]               Omega[rad/s]         Omega_target[rad/s] 
        0.0000000000         0.0000000000         2.5000000000         1.3378393285         0.8981126720         0.0056514226         0.0000000000
        0.0050000000         0.0910746814         2.7431434678         1.3378393285         0.8981126720         0.0056514226         0.4516939898
        0.0100000000         0.1819604078         2.7715702046         1.3454963091         0.9057683043         0.2051133952         0.9024508386
        0.0150000000         0.2724686163         2.7998889064         1.3352870017         0.9006645494        -0.0608359017         1.3513353495
        0.0200000000         0.3624115273         2.8280406737         1.3403916554         0.8930089170         0.0721387468         1.7974162106
        0.0250000000         0.4516025337         2.8559668922         1.3454963091         0.9032164269         0.2051133952         2.2397679263
        0.0300000000         0.5398565889         2.8836093559         1.3327346748         0.8930089170        -0.1273232259         2.6774727384
        0.0350000000         0.6269905899         2.9109103900         1.3378393285         0.9006645494         0.0056514226         3.1096225295
        0.0400000000         0.7128237574         2.9378129732         1.3327346748         0.8981126720        -0.1273232259         3.5353207073
        0.0450000000         0.7971780114         2.9642608592         1.3684672508         0.8955607945         0.8034993133         3.9536840651
        0.0500000000         0.8798783397         2.9901986965         1.4322754222         0.9083201818         2.4656824189         4.3638446136
        0.0550000000         0.9607531620         3.0155721478         1.3786765582         0.9057683043         1.0694486102         4.7649513824
        0.0600000000         1.0396346852         3.0403280065         1.4144091342         0.9185276916         2.0002711494         5.1561721849
        0.0650000000         1.1163592518         3.0644143118         1.4373800759         0.9261833240         2.5986570674         5.5366953454
        0.0700000000         1.1907676794         3.0877804620         1.4093044805         0.9287352015         1.8672965009         5.9057313828
        0.0750000000         1.2627055909         3.1103773238         1.4629033445         0.9465983437         3.2635303097         6.2625146486
        0.0800000000         1.3320237349         3.1321573408         1.4475893834         0.9542539761         2.8646063643         6.6063049155
        0.0850000000         1.3985782952         3.1530746367         1.4475893834         0.9746689957         2.8646063643         6.9363889129
        0.0900000000         1.4622311895         3.1730851171         1.4680079982         0.9746689957         3.3965049581         7.2520818072
        0.0950000000         1.5228503554         3.1921465664         1.4654556714         0.9925321379         3.3300176339         7.5527286224
        0.1000000000         1.5803100248         3.2102187414         1.4884266131         1.0154990351         3.9284035519         7.8377055988
        0.1050000000         1.6344909846         3.2272634607         1.4986359205         1.0282584224         4.1943528488         8.1064214873
        0.1100000000         1.6852808243         3.2432446895         1.4960835936         1.0461215646         4.1278655246         8.3583187763
        0.1150000000         1.7325741689         3.2581286203         1.5088452279         1.0537771970         4.4603021457         8.5928748481
        0.1200000000         1.7762728976         3.2718837483         1.5113975548         1.0716403392         4.5267894700         8.8096030631
        0.1250000000         1.8162863477         3.2844809424         1.5165022085         1.0920553588         4.6597641184         9.0080537698
        0.1300000000         1.8525315020         3.2958935103         1.5420254771         1.1073666236         5.3246373607         9.1878152375
        0.1350000000         1.8849331620         3.3060972590         1.5343684965         1.1303335207         5.1251753880         9.3485145105
        0.1400000000         1.9134241031         3.3150705488         1.5496824576         1.1533004179         5.5240993334         9.4898181818
        0.1450000000         1.9379452144         3.3227943428         1.5496824576         1.1737154375         5.5240993334         9.6114330852
        0.1500000000         1.9584456212         3.3292522498         1.5420254771         1.1813710699         5.3246373607         9.7131069031
        0.1550000000         1.9748827910         3.3344305611         1.5624440919         1.2068898445         5.8565359545         9.7946286903
        0.1600000000         1.9872226210         3.3383182820         1.5624440919         1.2298567416         5.8565359545         9.8558293113
        0.1650000000         1.9954395096         3.3409071565         1.5752057262         1.2579273937         6.1889725756         9.8965817918
        0.1700000000         1.9995164089         3.3421916863         1.5879673605         1.2808942908         6.5214091968         9.9168015815
        0.1750000000         1.9994448604         3.3421691430         1.5726533993         1.3064130654         6.1224852514         9.9164467298
        0.1800000000         1.9952250127         3.3408395744         1.5981766679         1.3268280851         6.7873584937         9.8955179731
        0.1850000000         1.9868656208         3.3382058047         1.5905196873         1.3523468597         6.5878965210         9.8540587327
        0.1900000000         1.9743840280         3.3342734275         1.5828627068         1.3702100019         6.3884345483         9.7921550252
        0.1950000000         1.9578061303         3.3290507935         1.6364615707         1.4008325314         7.7846683571         9.7099352838
        0.2000000000         1.9371663223         3.3225489916         1.6083859753         1.4263513060         7.0533077906         9.6075700919
        0.2050000000         1.9125074258         3.3147818233         1.6007289948         1.4493182031         6.8538458179         9.4852718291
        0.2100000000         1.8838806014         3.3057657719         1.5981766679         1.4748369777         6.7873584937         9.3432942308
        0.2150000000         1.8513452419         3.2955199648         1.6236999365         1.5054595072         7.4522317359         9.1819318615
        0.2200000000         1.8149688491         3.2840661304         1.6032813216         1.5335301593         6.9203331421         9.0015195039
        0.2250000000         1.7748268941         3.2714285491         1.6185952828         1.5564970564         7.3192570875         8.8024314641
        0.2300000000         1.7310026605         3.2576339981         1.6262522633         1.5947752183         7.5187190602         8.5850807950
        0.2350000000         1.6835870715         3.2427116916         1.6185952828         1.6202939929         7.3192570875         8.3499184398
        0.2400000000         1.6326785014         3.2266932149         1.6415662245         1.6483646449         7.9176430055         8.0974322957
        0.2450000000         1.5783825716         3.2096124537         1.6160429559         1.6713315420         7.2527697633         7.8281462022
        0.2500000000         1.5208119312         3.1915055181         1.6568801856         1.7096097039         8.3165669509         7.5426188540
        0.2550000000         1.4600860235         3.1724106620         1.6185952828         1.7223690912         7.3192570875         7.2414426420
        0.2600000000         1.3963308380         3.1523681983         1.6160429559         1.7529916207         7.2527697633         6.9252424241
        0.2650000000         1.3296786493         3.1314204088         1.6262522633         1.7912697826         7.5187190602         6.5946742290
        0.2700000000         1.2602677424         3.1096114512         1.6185952828         1.8167885572         7.3192570875         6.2504238951
        0.2750000000         1.1882421258         3.0869872612         1.6134906290         1.8346516994         7.1862824390         5.8932056471
        0.2800000000         1.1137512330         3.0635954514         1.6109383022         1.8550667191         7.1197951148         5.5237606151
        0.2850000000         1.0369496120         3.0394852076         1.6109383022         1.8958967584         7.1197951148         5.1428552959
        0.2900000000         0.9579966053         3.0147071802         1.6211476096         1.9239674105         7.3857444117         4.7512799636
        0.2950000000         0.8770560185         2.9893133747         1.6058336485         1.9520380625         6.9868204664         4.3498470295
        0.3000000000         0.7942957813         2.9633570388         1.5981766679         1.9673493273         6.7873584937         3.9393893568
        0.3050000000         0.7098875983         2.9368925467         1.6058336485         1.9954199793         6.9868204664         3.5207585324
        0.3100000000         0.6240065934         2.9099752827         1.5930720142         2.0209387539         6.6543838452         3.0948231005
        0.3150000000         0.5368309461         2.8826615219         1.5879673605         2.0439056511         6.5214091968         2.6624667601
        0.3200000000         0.4485415219         2.8550083100         1.5854150336         2.0668725482         6.4549218725         2.2245865320
        0.3250000000         0.3593214972         2.8270733423         1.5803103799         2.1025988326         6.3219472241         1.7820908974
        0.3300000000         0.2693559790         2.7989148409         1.5803103799         2.1179100974         6.3219472241         1.3358979134
        0.3350000000         0.1788316211         2.7705914320         1.5854150336         2.1434288720         6.4549218725         0.8869333079
        0.3400000000         0.0879362366         2.7421620228         1.5624440919         2.1714995240         5.8565359545         0.4361285592
        0.3450000000        -0.0031415914         2.5000000000         1.5573394382         2.1868107888         5.7235613061        -0.0155810365
        0.3500000000        -0.0942129014         2.2537374290         1.5803103799         2.2174333183         6.3219472241        -0.4672583059
        0.3550000000        -0.1850887456         2.2204859496         1.5445778039         2.2378483379         5.3911246849        -0.9179661425
        0.3600000000        -0.2755805814         2.1876272180         1.4986359205         2.2506077252         4.1943528488        -1.3667694514
        0.3650000000        -0.3655006631         2.1552198246         1.4782173056         2.2659189900         3.6624542550        -1.8127370887
        0.3700000000        -0.4546624313         2.1233203457         1.4552463639         2.2761264998         3.0640683370        -2.2549437942
        0.3750000000        -0.5428808997         2.0919833406         1.4169614611         2.2812302547         2.0667584736        -2.6924721103
        0.3800000000        -0.6299730393         2.0612613533         1.3812288851         2.2863340097         1.1359359344        -3.1244142858
        0.3850000000        -0.7157581578         2.0312049187         1.3378393285         2.2965415195         0.0056514226        -3.5498741592
        0.3900000000        -0.8000582745         2.0018625710         1.2918974451         2.2939896420        -1.1911204135        -3.9679690181
        0.3950000000        -0.8826984899         1.9732808562         1.2944497720         2.2837821322        -1.1246330893        -4.3778314304
        0.4000000000        -0.9635073482         1.9455043450         1.2867927914         2.2863340097        -1.3240950620        -4.7786110441
        0.4050000000        -1.0423171932         1.9185756482         1.2689265034         2.2837821322        -1.7895063316        -5.1694763516
        0.4100000000        -1.1189645162         1.8925354334         1.2714788303         2.2761264998        -1.7230190073        -5.5496164146
        0.4150000000        -1.1932902949         1.8674224415         1.2459555617         2.2659189900        -2.3878922496        -5.9182425467
        0.4200000000        -1.2651403238         1.8432735046         1.2331939274         2.2684708674        -2.7203288707        -6.2745899500
        0.4250000000        -1.3343655338         1.8201235636         1.2255369469         2.2506077252        -2.9197908434        -6.6179193015
        0.4300000000        -1.4008223016         1.7980056859         1.2127753126         2.2378483379        -3.2522274645        -6.9475182869
        0.4350000000        -1.4643727475         1.7769510825         1.2025660052         2.2199851957        -3.5181767615        -7.2627030787
        0.4400000000        -1.5248850220         1.7569891255         1.2255369469         2.2199851957        -2.9197908434        -7.5628197552
        0.4450000000        -1.5822335786         1.7381473638         1.1872520440         2.1995701761        -3.9171007068        -7.8472456566
        0.4500000000        -1.6362994349         1.7204515397         1.1668334292         2.1766032789        -4.4489993006        -8.1153906771
        0.4550000000        -1.6869704189         1.7039256033         1.1719380829         2.1638438916        -4.3160246522        -8.3666984895
        0.4600000000        -1.7341414023         1.6885917271         1.1770427366         2.1561882593        -4.1830500037        -8.6006476990
        0.4650000000        -1.7777145184         1.6744703191         1.1540717949         2.1332213621        -4.7814359218        -8.8167529253
        0.4700000000        -1.8175993647         1.6615800351         1.1489671412         2.1153582199        -4.9144105702        -9.0145658092
        0.4750000000        -1.8537131913         1.6499377907         1.1234438726         2.0923913228        -5.5792838125        -9.1936759435
        0.4800000000        -1.8859810718         1.6395587709         1.1387578337         2.0668725482        -5.1803598671        -9.3537117236
        0.4850000000        -1.9143360592         1.6304564404         1.1234438726         2.0515612834        -5.5792838125        -9.4943411194
        0.4900000000        -1.9387193248         1.6226425513         1.1030252578         2.0234906314        -6.1111824063        -9.6152723633
        0.4950000000        -1.9590802799         1.6161271510         1.1208915457         2.0107312441        -5.6457711367        -9.7162545563
        0.5000000000        -1.9753766812         1.6109185879         1.1157868920         1.9852124695        -5.7787457852        -9.7970781880
        0.5050000000        -1.9875747180         1.6070235172         1.0800543160         1.9596936949        -6.7095683243        -9.8575755716
        0.5100000000        -1.9956490829         1.6044469051         1.1081299115         1.9418305527        -5.9782077578        -9.8976211916
        0.5150000000        -1.9995830237         1.6031920314         1.0775019892         1.9112080232        -6.7760556486        -9.9171319644
        0.5200000000        -1.9993683786         1.6032604920         1.0851589698         1.8907930035        -6.5765936759        -9.9160674103
        0.5250000000        -1.9950055928         1.6046522000         1.0877112966         1.8678261064        -6.5101063517        -9.8944297382
        0.5300000000        -1.9865037181         1.6073653853         1.0749496623         1.8423073318        -6.8425429728        -9.8522638402
        0.5350000000        -1.9738803934         1.6113965935         1.0723973355         1.8193404347        -6.9090302970        -9.7896571990
        0.5400000000        -1.9571618087         1.6167406841         1.0800543160         1.7963735375        -6.7095683243        -9.7067397062
        0.5450000000        -1.9363826504         1.6233908270         1.0596357012         1.7555434982        -7.2414669181        -9.6036833928
        0.5500000000        -1.9115860296         1.6313384981         1.0647403549         1.7325766011        -7.1084922697        -9.4807020724
        0.5550000000        -1.8828233925         1.6405734740         1.0647403549         1.7198172138        -7.1084922697        -9.3380508975
        0.5600000000        -1.8501544137         1.6510838259         1.0672926818         1.6840909293        -7.0420049455        -9.1760258300
        0.5650000000        -1.8136468723         1.6628559115         1.0443217401         1.6534683998        -7.6403908635        -8.9949630277
        0.5700000000        -1.7733765114         1.6758743671         1.0698450086         1.6381571351        -6.9755176212        -8.7952381459
        0.5750000000        -1.7294268810         1.6901220978         1.0672926818         1.6126383605        -7.0420049455        -8.5772655592
        0.5800000000        -1.6818891646         1.7055802670         1.0468740669         1.5769120761        -7.5739035393        -8.3414975007
        0.5850000000        -1.6308619898         1.7222282846         1.0519787206         1.5513933015        -7.4409288908        -8.0884231245
        0.5900000000        -1.5764512240         1.7400437951         1.0443217401         1.5156670170        -7.6403908635        -7.8185674905
        0.5950000000        -1.5187697546         1.7590026635         1.0392170863         1.4901482425        -7.7733655120        -7.5324904749
        0.6000000000        -1.4579372548         1.7790789615         1.0723973355         1.4697332228        -6.9090302970        -7.2307856091
        0.6050000000        -1.3940799355         1.8002449520         1.0443217401         1.4442144482        -7.6403908635        -6.9140788479
        0.6100000000        -1.3273302829         1.8224710738         1.0647403549         1.4135919187        -7.1084922697        -6.5830272709
        0.6150000000        -1.2578267843         1.8457259244         1.0647403549         1.3855212666        -7.1084922697        -6.2383177192
        0.6200000000        -1.1857136403         1.8699762436         1.0494263938         1.3523468597        -7.5074162151        -5.8806653705
        0.6250000000        -1.1111404660         1.8951868956         1.0596357012         1.3268280851        -7.2414669181        -5.5108122554
        0.6300000000        -1.0342619803         1.9213208516         1.0698450086         1.3115168203        -6.9755176212        -5.1295257174
        0.6350000000        -0.9552376848         1.9483391722         1.0647403549         1.2783424134        -7.1084922697        -4.7375968215
        0.6400000000        -0.8742315333         1.9762009897         1.0723973355         1.2451680064        -6.9090302970        -4.3358387126
        0.6450000000        -0.7914115913         2.0048634911         1.0698450086         1.2273048642        -6.9755176212        -3.9250849284
        0.6500000000        -0.7069496876         2.0342819021         1.0826066429         1.2017860896        -6.6430810001        -3.5061876704
        0.6550000000        -0.6210210572         2.0644094718         1.0826066429         1.1762673150        -6.6430810001        -3.0800160354
        0.6600000000        -0.5338039786         2.0951974592         1.0826066429         1.1507485404        -6.6430810001        -2.6474542125
        0.6650000000        -0.4454794033         2.1265951223         1.0979206040         1.1277816433        -6.2441570547        -2.2093996487
