% f=1.15Hz  n_cycles=5  N_total=869  dt=0.005000
% Amp=2.0000V  K_lin=4.959600
Time[s]              Vcmd[V]              Vc[V]                Vg[V]                Pot[V]               Omega[rad/s]         Omega_target[rad/s] 
        0.0000000000         0.0000000000         2.5000000000         1.3352870017         1.0946072363        -0.0608359017         0.0000000000
        0.0050000000         0.0722409132         2.7372540087         1.3429439823         1.0997109912         0.1386260710         0.3582860329
        0.0100000000         0.1443875438         2.7598171465         1.3378393285         1.0946072363         0.0056514226         0.7161044621
        0.0150000000         0.2163457323         2.7823276913         1.3429439823         1.0997109912         0.1386260710         1.0729882938
        0.0200000000         0.2880215651         2.8047562077         1.3301823480         1.0895034814        -0.1938105501         1.4284717543
        0.0250000000         0.3593214972         2.8270733423         1.3378393285         1.0920553588         0.0056514226         1.7820908974
        0.0300000000         0.4301524740         2.8492498635         1.3352870017         1.0920553588        -0.0608359017         2.1333842102
        0.0350000000         0.5004220532         2.8712566993         1.3352870017         1.0946072363        -0.0608359017         2.4818932151
        0.0400000000         0.5700385249         2.8930649760         1.3429439823         1.0997109912         0.1386260710         2.8271630683
        0.0450000000         0.6389110319         2.9146460573         1.3429439823         1.0920553588         0.1386260710         3.1687431536
        0.0500000000         0.7069496876         2.9359715818         1.4322754222         1.1022628687         2.4656824189         3.5061876704
        0.0550000000         0.7740656939         2.9570135012         1.3914381925         1.1022628687         1.4018852313         3.8390562153
        0.0600000000         0.8401714568         2.9777441184         1.3863335388         1.0997109912         1.2689105829         4.1669143573
        0.0650000000         0.9051807009         2.9981361243         1.4297230954         1.1124703785         2.3991950947         4.4893342042
        0.0700000000         0.9690085817         3.0181626353         1.4067521537         1.1201260109         1.8008091767         4.8058949617
        0.0750000000         1.0315717966         3.0377972293         1.4373800759         1.1328853982         2.5986570674         5.1161834823
        0.0800000000         1.0927886935         3.0570139820         1.4552463639         1.1328853982         3.0640683370         5.4197948041
        0.0850000000         1.1525793774         3.0757875022         1.4373800759         1.1481966629         2.5986570674         5.7163326802
        0.0900000000         1.2108658148         3.0940929662         1.4424847297         1.1533004179         2.7316317159         6.0054100949
        0.0950000000         1.2675719351         3.1119061528         1.4526940371         1.1711635601         2.9975810128         6.2866497695
        0.1000000000         1.3226237306         3.1292034756         1.4705603251         1.1890267023         3.4629922823         6.5596846545
        0.1050000000         1.3759493524         3.1459620162         1.4756649788         1.1966823347         3.5959669308         6.8241584084
        0.1100000000         1.4274792046         3.1621595557         1.4756649788         1.2094417220         3.5959669308         7.0797258629
        0.1150000000         1.4771460347         3.1777746058         1.4782173056         1.2170973543         3.6624542550         7.3260534737
        0.1200000000         1.5248850220         3.1927864382         1.4858742862         1.2349604965         3.8619162277         7.5628197552
        0.1250000000         1.5706338618         3.2071751140         1.5088452279         1.2502717613         4.4603021457         7.7897157008
        0.1300000000         1.6143328465         3.2209215110         1.5011882474         1.2604792711         4.2608401731         8.0064451855
        0.1350000000         1.6559249441         3.2340073512         1.4909789399         1.2859980457         3.9948908762         8.2127253527
        0.1400000000         1.6953558722         3.2464152259         1.5190545354         1.3013093105         4.7262514427         8.4082869836
        0.1450000000         1.7325741689         3.2581286203         1.5165022085         1.3217243302         4.6597641184         8.5928748481
        0.1500000000         1.7675312602         3.2691319368         1.5292638428         1.3421393498         4.9922007396         8.7662480380
        0.1550000000         1.8001815231         3.2794105171         1.5318161696         1.3574506146         5.0586880638         8.9281802817
        0.1600000000         1.8304823452         3.2889506629         1.5445778039         1.3829693892         5.3911246849         9.0784602395
        0.1650000000         1.8583941807         3.2977396551         1.5420254771         1.3982806539         5.3246373607         9.2168917788
        0.1700000000         1.8838806014         3.3057657719         1.5496824576         1.4135919187         5.5240993334         9.3432942308
        0.1750000000         1.9069083446         3.3130183057         1.5496824576         1.4340069384         5.5240993334         9.4575026261
        0.1800000000         1.9274473566         3.3194875781         1.5905196873         1.4646294679         6.5878965210         9.5593679097
        0.1850000000         1.9454708315         3.3251649536         1.5803103799         1.4875963650         6.3219472241         9.6487571359
        0.1900000000         1.9609552467         3.3300428520         1.5675487456         1.5003557523         5.9895106030         9.7255536418
        0.1950000000         1.9738803934         3.3341147594         1.5701010725         1.5309782818         6.0559979272         9.7896571990
        0.2000000000         1.9842294026         3.3373752371         1.6032813216         1.5616008113         6.9203331421         9.8409841453
        0.2050000000         1.9919887679         3.3398199296         1.5803103799         1.5718083211         6.3219472241         9.8794674931
        0.2100000000         1.9971483622         3.3414455710         1.5854150336         1.6075346056         6.4549218725         9.9050570174
        0.2150000000         1.9997014519         3.3422499892         1.6058336485         1.6305015027         6.9868204664         9.9177193208
        0.2200000000         1.9996447048         3.3422321095         1.6032813216         1.6560202773         6.9203331421         9.9174378777
        0.2250000000         1.9969781949         3.3413919556         1.6109383022         1.6866428068         7.1197951148         9.9042130554
        0.2300000000         1.9917054024         3.3397306502         1.6083859753         1.7096097039         7.0533077906         9.8780621138
        0.2350000000         1.9838332089         3.3372504129         1.6109383022         1.7274728461         7.1197951148         9.8390191828
        0.2400000000         1.9733718884         3.3339545573         1.6109383022         1.7606472531         7.1197951148         9.7871352178
        0.2450000000         1.9603350942         3.3298474859         1.6211476096         1.7887179052         7.3857444117         9.7224779333
        0.2500000000         1.9447398408         3.3249346844         1.6211476096         1.8193404347         7.3857444117         9.6451317144
        0.2550000000         1.9266064817         3.3192227133         1.6262522633         1.8397554543         7.5187190602         9.5551975067
        0.2600000000         1.9059586830         3.3127191989         1.6262522633         1.8627223515         7.5187190602         9.4527926844
        0.2650000000         1.8828233925         3.3054328223         1.6262522633         1.8984486359         7.5187190602         9.3380508975
        0.2700000000         1.8572308043         3.2973733069         1.6313569170         1.9239674105         7.6516937086         9.2111218969
        0.2750000000         1.8292143196         3.2885514049         1.6262522633         1.9545899400         7.5187190602         9.0721713395
        0.2800000000         1.7988105031         3.2789788817         1.6313569170         1.9826605920         7.6516937086         8.9213805713
        0.2850000000         1.7660590353         3.2686684992         1.6364615707         2.0132831215         7.7846683571         8.7589463915
        0.2900000000         1.7310026605         3.2576339981         1.6262522633         2.0439056511         7.5187190602         8.5850807950
        0.2950000000         1.6936871313         3.2458900778         1.6288045902         2.0668725482         7.5852063844         8.4000106962
        0.3000000000         1.6541611485         3.2334523764         1.6466708782         2.1102544650         8.0506176540         8.2039776323
        0.3050000000         1.6124762983         3.2203374480         1.6364615707         2.1306694847         7.7846683571         7.9972374489
        0.3100000000         1.5686869839         3.2065627395         1.6339092439         2.1612920142         7.7181810329         7.7800599652
        0.3150000000         1.5228503554         3.1921465664         1.6594325125         2.1868107888         8.3830542751         7.5527286224
        0.3200000000         1.4750262347         3.1771080867         1.6492232050         2.2225370732         8.1171049782         7.3155401137
        0.3250000000         1.4252770379         3.1614672744         1.6313569170         2.2506077252         7.6516937086         7.0688039969
        0.3300000000         1.3736676931         3.1452448912         1.6415662245         2.2863340097         7.9176430055         6.8128422906
        0.3350000000         1.3202655565         3.1284624581         1.6339092439         2.3016452744         7.7181810329         6.5479890539
        0.3400000000         1.2651403238         3.1111422250         1.6339092439         2.3424753138         7.7181810329         6.2745899500
        0.3450000000         1.2083639398         3.0933071399         1.6415662245         2.3705459658         7.9176430055         5.9930017960
        0.3500000000         1.1500105041         3.0749808174         1.6262522633         2.4011684953         7.5187190602         5.7035920961
        0.3550000000         1.0901561744         3.0561875059         1.6390138976         2.4241353924         7.8511556813         5.4067385627
        0.3600000000         1.0288790676         3.0369520542         1.6211476096         2.4573097994         7.3857444117         5.1028286235
        0.3650000000         0.9662591570         3.0172998776         1.6313569170         2.4904842064         7.6516937086         4.7922589152
        0.3700000000         0.9023781689         2.9972569226         1.6236999365         2.5083473486         7.4522317359         4.4754347664
        0.3750000000         0.8373194751         2.9768496322         1.6185952828         2.5466255105         7.3192570875         4.1527696686
        0.3800000000         0.7711679846         2.9561049093         1.6160429559         2.5670405302         7.2527697633         3.8246847362
        0.3850000000         0.7040100325         2.9350500806         1.6134906290         2.5925593047         7.1862824390         3.4916081572
        0.3900000000         0.6359332677         2.9137128594         1.6109383022         2.6308374666         7.1197951148         3.1539746343
        0.3950000000         0.5670265379         2.8921213082         1.6109383022         2.6538043638         7.1197951148         2.8122248174
        0.4000000000         0.4973797743         2.8703038011         1.5956243410         2.6793231383         6.7208711695         2.4668047288
        0.4050000000         0.4270838738         2.8482889858         1.6058336485         2.7124975453         6.9868204664         2.1181651807
        0.4100000000         0.3562305805         2.8261057451         1.6058336485         2.7303606875         6.9868204664         1.7667611872
        0.4150000000         0.2849123660         2.8037831589         1.5726533993         2.7558794621         6.1224852514         1.4130513703
        0.4200000000         0.2132223086         2.7813504650         1.5981766679         2.7839501142         6.7873584937         1.0574973615
        0.4250000000         0.1412539719         2.7588370210         1.5828627068         2.8043651338         6.3884345483         0.7005631988
        0.4300000000         0.0691012827         2.7362722651         1.5496824576         2.8247801535         5.5240993334         0.3427147219
        0.4350000000        -0.0031415914         2.5000000000         1.5879673605         2.8605064379         6.5214091968        -0.0155810365
        0.4400000000        -0.0753803653         2.2606605515         1.5598917651         2.8656101929         5.7900486303        -0.3738564599
        0.4450000000        -0.1475207594         2.2342009666         1.5267115159         2.8936808449         4.9257134153        -0.7316439584
        0.4500000000        -0.2194686222         2.2079728445         1.5113975548         2.9166477420         4.5267894700        -1.0884765786
        0.4550000000        -0.2911300536         2.1820059331         1.4960835936         2.9319590068         4.1278655246        -1.4438886136
        0.4600000000        -0.3624115273         2.1563291848         1.4807696325         2.9523740265         3.7289415793        -1.7974162106
        0.4650000000        -0.4332200129         2.1309707545         1.4246184417         2.9523740265         2.2662204463        -2.1485979759
        0.4700000000        -0.5034630973         2.1059579992         1.3710195777         2.9574777814         0.8699866375        -2.4969755776
        0.4750000000        -0.5730491055         2.0813174780         1.3046590794         2.9574777814        -0.8586837924        -2.8420943434
        0.4800000000        -0.6418872196         2.0570749536         1.3199730405         2.9600296588        -0.4597598470        -3.1835038544
        0.4850000000        -0.7098875983         2.0332553949         1.3097637331         2.9651334138        -0.7257091439        -3.5207585324
        0.4900000000        -0.7769614933         2.0098829798         1.2765834840         2.9498221490        -1.5900443589        -3.8534182220
        0.4950000000        -0.8430213655         1.9869810990         1.2842404646         2.9472702715        -1.3905823862        -4.1810487645
        0.5000000000        -0.9079809995         1.9645723601         1.2714788303         2.9421665166        -1.7230190073        -4.5032225650
        0.5050000000        -0.9717556154         1.9426785924         1.2587171960         2.9396146392        -2.0554556285        -4.8195191503
        0.5100000000        -1.0342619803         1.9213208516         1.2536125423         2.9243033744        -2.1884302769        -5.1295257174
        0.5150000000        -1.0954185162         1.9005194252         1.2382985811         2.9217514970        -2.5873542223        -5.4328376727
        0.5200000000        -1.1551454068         1.8802938377         1.2306416006         2.9115439871        -2.7868161950        -5.7290591598
        0.5250000000        -1.2133647020         1.8606628562         1.2229846200         2.8936808449        -2.9862781676        -6.0178035761
        0.5300000000        -1.2700004189         1.8416444959         1.2000136783         2.8732658252        -3.5846640857        -6.2986940774
        0.5350000000        -1.3249786414         1.8232560258         1.1923566977         2.8630583154        -3.7841260584        -6.5713640698
        0.5400000000        -1.3782276168         1.8055139738         1.2153276394         2.8630583154        -3.1857401403        -6.8354576882
        0.5450000000        -1.4296778491         1.7884341326         1.1898043709         2.8477470506        -3.8506133826        -7.0906302604
        0.5500000000        -1.4792621900         1.7720315650         1.1898043709         2.8298839084        -3.8506133826        -7.3365487573
        0.5550000000        -1.5269159262         1.7563206090         1.1821473903         2.8094688888        -4.0500753553        -7.5728922275
        0.5600000000        -1.5725768643         1.7413148829         1.1744904097         2.7916057465        -4.2495373279        -7.7993522160
        0.5650000000        -1.6161854115         1.7270272903         1.1668334292         2.7737426043        -4.4489993006        -8.0156331669
        0.5700000000        -1.6576846538         1.7134700249         1.1489671412         2.7660869720        -4.9144105702        -8.2214528090
        0.5750000000        -1.6970204300         1.7006545748         1.1515194680         2.7482238297        -4.8479232460        -8.4165425244
        0.5800000000        -1.7341414023         1.6885917271         1.1515194680         2.7227050552        -4.8479232460        -8.6006476990
        0.5850000000        -1.7689991238         1.6772915718         1.1464148143         2.7176013002        -4.9808978944        -8.7735280546
        0.5900000000        -1.8015481012         1.6667635058         1.1336531800         2.6946344031        -5.3133345156        -8.9349579628
        0.5950000000        -1.8317458544         1.6570162362         1.1668334292         2.6767712609        -4.4489993006        -9.0847267393
        0.6000000000        -1.8595529718         1.6480577842         1.1106822383         2.6487006088        -5.9117204336        -9.2226389188
        0.6050000000        -1.8849331620         1.6398954878         1.1311008532         2.6282855892        -5.3798218398        -9.3485145105
        0.6100000000        -1.9078533011         1.6325360048         1.0902636235         2.6002149371        -6.4436190274        -9.4621892323
        0.6150000000        -1.9282834757         1.6259853155         1.1132345652         2.5849036724        -5.8452331094        -9.5635147259
        0.6200000000        -1.9461970220         1.6202487250         1.1004729309         2.5644886527        -6.1776697305        -9.6523587501
        0.6250000000        -1.9615705608         1.6153308652         1.0877112966         2.5364180006        -6.5101063517        -9.7286053534
        0.6300000000        -1.9743840280         1.6112356967         1.0826066429         2.5185548584        -6.6430810001        -9.7921550252
        0.6350000000        -1.9846207005         1.6079665104         1.1106822383         2.4904842064        -5.9117204336        -9.8429248261
        0.6400000000        -1.9922672183         1.6055259289         1.0698450086         2.4598616769        -6.9755176212        -9.8808484958
        0.6450000000        -1.9973136018         1.6039159073         1.0672926818         2.4368947797        -7.0420049455        -9.9058765395
        0.6500000000        -1.9997532650         1.6031377339         1.0928159503         2.4113760052        -6.3771317032        -9.9179762929
        0.6550000000        -1.9995830237         1.6031920314         1.0494263938         2.3858572306        -7.5074162151        -9.9171319644
        0.6600000000        -1.9968031002         1.6040787562         1.0698450086         2.3603384560        -6.9755176212        -9.9033446558
        0.6650000000        -1.9914171226         1.6057971991         1.0775019892         2.3297159265        -6.7760556486        -9.8766323613
