% f=1.30Hz  n_cycles=5  N_total=769  dt=0.005000
% Amp=1.0000V  K_lin=8.382100
Time[s]              Vcmd[V]              Vc[V]                Vg[V]                Pot[V]               Omega[rad/s]         Omega_target[rad/s] 
        0.0000000000         0.0000000000         2.5000000000         1.3429439823         1.5335301593         0.1469369865         0.0000000000
        0.0050000000         0.0408293520         2.5000000000         1.3327346748         1.5284264043        -0.1190123104         0.3422357112
        0.0100000000         0.0815906116         2.7780553767         1.3429439823         1.5335301593         0.1469369865         0.6839006652
        0.0150000000         0.1222157999         2.7974635278         1.3429439823         1.5309782818         0.1469369865         1.0244250567
        0.0200000000         0.1626371652         2.8169140413         1.3403916554         1.5360820367         0.0804496623         1.3632409824
        0.0250000000         0.2027872954         2.8363750531         1.3352870017         1.5258745269        -0.0525249861         1.6997833884
        0.0300000000         0.2425992308         2.8558139805         1.3352870017         1.5258745269        -0.0525249861         2.0334910125
        0.0350000000         0.2820065759         2.8751975518         1.3429439823         1.5335301593         0.1469369865         2.3638073199
        0.0400000000         0.3209436098         2.8944918404         1.3327346748         1.5207707720        -0.1190123104         2.6901814318
        0.0450000000         0.3593453960         2.9136623045         1.3429439823         1.5335301593         0.1469369865         3.0120690439
        0.0500000000         0.3971478906         2.9326738332         1.4041998268         1.5309782818         1.7426327680         3.3289333341
        0.0550000000         0.4342880493         2.9514907989         1.4067521537         1.5360820367         1.8091200922         3.6402458580
        0.0600000000         0.4707039322         2.9700771166         1.3837812120         1.5411857916         1.2107341742         3.9454874298
        0.0650000000         0.5063348074         2.9883963109         1.4118568074         1.5488414240         1.9420947407         4.2441489887
        0.0700000000         0.5411212521         3.0064115901         1.4220661148         1.5488414240         2.2080440376         4.5357324475
        0.0750000000         0.5750052520         3.0240859298         1.4144091342         1.5692564437         2.0085820649         4.8197515232
        0.0800000000         0.6079302977         3.0413821630         1.4450370565         1.5718083211         2.8064299556         5.0957325483
        0.0850000000         0.6398414790         3.0582630807         1.4271707685         1.5743601986         2.3410186860         5.3632152607
        0.0900000000         0.6706855765         3.0746915402         1.4348277491         1.5896714634         2.5404806587         5.6217535711
        0.0950000000         0.7004111508         3.0906305819         1.4526940371         1.5947752183         3.0058919283         5.8709163070
        0.1000000000         0.7289686274         3.1060435555         1.4501417102         1.6228458703         2.9394046041         6.1102879319
        0.1050000000         0.7563103803         3.1208942536         1.4526940371         1.6228458703         3.0058919283         6.3394692383
        0.1100000000         0.7823908106         3.1351470533         1.4782173056         1.6432608900         3.6707651706         6.5580780133
        0.1150000000         0.8071664232         3.1487670649         1.4680079982         1.6483646449         3.4048158736         6.7657496763
        0.1200000000         0.8305958992         3.1617202864         1.4731126519         1.6636759097         3.5377905221         6.9621378866
        0.1250000000         0.8526401644         3.1739737635         1.5113975548         1.6738834195         4.5351003855         7.1469151216
        0.1300000000         0.8732624548         3.1854957529         1.4782173056         1.6917465617         3.6707651706         7.3197732225
        0.1350000000         0.8924283781         3.1962558877         1.5062929011         1.7147134588         4.4021257370         7.4804239083
        0.1400000000         0.9101059707         3.2062253443         1.4960835936         1.7249209687         4.1361764401         7.6285992569
        0.1450000000         0.9262657510         3.2153770065         1.5011882474         1.7402322334         4.2691510886         7.7640521516
        0.1500000000         0.9408807690         3.2236856276         1.5190545354         1.7606472531         4.7345623582         7.8865566935
        0.1550000000         0.9539266506         3.2311279864         1.5139498816         1.7734066404         4.6015877097         7.9959085777
        0.1600000000         0.9653816388         3.2376830355         1.5139498816         1.7861660277         4.6015877097         8.0919254349
        0.1650000000         0.9752266299         3.2433320404         1.5318161696         1.8142366797         5.0669989793         8.1744471346
        0.1700000000         0.9834452050         3.2480587063         1.5216068622         1.8346516994         4.8010496824         8.2433360528
        0.1750000000         0.9900236577         3.2518492909         1.5292638428         1.8423073318         5.0005116551         8.2984773013
        0.1800000000         0.9949510170         3.2546927016         1.5420254771         1.8652742289         5.3329482762         8.3397789194
        0.1850000000         0.9982190653         3.2565805753         1.5318161696         1.8907930035         5.0669989793         8.3671720271
        0.1900000000         0.9998223524         3.2575073392         1.5598917651         1.9112080232         5.7983595458         8.3806109399
        0.1950000000         0.9997582044         3.2574702518         1.5598917651         1.9265192879         5.7983595458         8.3800732454
        0.2000000000         0.9980267284         3.2564694227         1.5522347845         1.9443824302         5.5988975731         8.3655598404
        0.2050000000         0.9946308120         3.2545078124         1.5445778039         1.9673493273         5.3994356004         8.3370949292
        0.2100000000         0.9895761186         3.2515912101         1.5981766679         1.9979718568         6.7956694092         8.2947259837
        0.2150000000         0.9828710781         3.2477281912         1.5522347845         2.0107312441         5.5988975731         8.2385236640
        0.2200000000         0.9745268728         3.2429300551         1.5598917651         2.0260425088         5.7983595458         8.1685817004
        0.2250000000         0.9645574185         3.2372107441         1.5471301308         2.0541131609         5.4659229247         8.0850167373
        0.2300000000         0.9529793415         3.2305867449         1.5573394382         2.0694244256         5.7318722216         7.9879681385
        0.2350000000         0.9398119511         3.2230769748         1.5573394382         2.0923913228         5.7318722216         7.8775977552
        0.2400000000         0.9250772068         3.2147026532         1.5675487456         2.1281176072         5.9978215185         7.7540896554
        0.2450000000         0.9087996824         3.2054871626         1.5598917651         2.1434288720         5.7983595458         7.6176498175
        0.2500000000         0.8910065242         3.1954558992         1.5675487456         2.1689476465         5.9978215185         7.4685057864
        0.2550000000         0.8717274065         3.1846361161         1.5598917651         2.1893626662         5.7983595458         7.3069062943
        0.2600000000         0.8509944818         3.1730567618         1.5649964188         2.2097776859         5.9313341943         7.1331208459
        0.2650000000         0.8288423269         3.1607483148         1.5777580530         2.2378483379         6.2637708154         6.9474392683
        0.2700000000         0.8053078857         3.1477426174         1.5573394382         2.2582633576         5.7318722216         6.7501712288
        0.2750000000         0.7804304073         3.1340727103         1.5675487456         2.2735746224         5.9978215185         6.5416457174
        0.2800000000         0.7542513807         3.1197726695         1.5598917651         2.3016452744         5.7983595458         6.3222104985
        0.2850000000         0.7268144655         3.1048774464         1.5649964188         2.3271640490         5.9313341943         6.0922315312
        0.2900000000         0.6981654190         3.0894227140         1.5598917651         2.3475790687         5.7983595458         5.8520923585
        0.2950000000         0.6683520202         3.0734447188         1.5598917651         2.3730978433         5.7983595458         5.6021934682
        0.3000000000         0.6374239897         3.0569801396         1.5649964188         2.3935128629         5.9313341943         5.3429516245
        0.3050000000         0.6054329074         3.0400659543         1.5496824576         2.4113760052         5.5324102489         5.0747991730
        0.3100000000         0.5724321256         3.0227393149         1.5649964188         2.4394466572         5.9313341943         4.7981833199
        0.3150000000         0.5384766808         3.0050374308         1.5496824576         2.4598616769         5.5324102489         4.5135653864
        0.3200000000         0.5036232016         2.9869974614         1.5471301308         2.4828285740         5.4659229247         4.2214200384
        0.3250000000         0.4679298143         2.9686564165         1.5547871113         2.5032435937         5.6653848974         3.9222344961
        0.3300000000         0.4314560457         2.9500510662         1.5394731502         2.5160029810         5.2664609520         3.6165077205
        0.3350000000         0.3942627243         2.9312178585         1.5241591891         2.5415217556         4.8675370066         3.3047495817
        0.3400000000         0.3564118787         2.9121928453         1.5369208233         2.5593848978         5.1999736278         2.9874800086
        0.3450000000         0.3179666338         2.8930116167         1.5394731502         2.5823517949         5.2664609520         2.6652281214
        0.3500000000         0.2789911060         2.8737092414         1.5190545354         2.5951111822         4.7345623582         2.3385313499
        0.3550000000         0.2395502960         2.8543202155         1.5241591891         2.6206299568         4.8675370066         2.0079345365
        0.3600000000         0.1997099805         2.8348784167         1.5139498816         2.6308374666         4.6015877097         1.6739890277
        0.3650000000         0.1595366024         2.8154170647         1.5267115159         2.6563562412         4.9340243309         1.3372517550
        0.3700000000         0.1190971601         2.7959686879         1.5241591891         2.6716675060         4.8675370066         0.9982843056
        0.3750000000         0.0784590957         2.7765650941         1.5037405742         2.6895306482         4.3356384128         0.6576519863
        0.3800000000         0.0376901827         2.5000000000         1.5113975548         2.7150494228         4.5351003855         0.3159228802
        0.3850000000        -0.0031415875         2.5000000000         1.5062929011         2.7278088101         4.4021257370        -0.0263331005
        0.3900000000        -0.0439681183         2.5000000000         1.4858742862         2.7405681974         3.8702271432        -0.3685451646
        0.3950000000        -0.0847213221         2.2005430351         1.4705603251         2.7507757072         3.4713031979        -0.7101425943
        0.4000000000        -0.1253332336         2.1803050394         1.4680079982         2.7686388494         3.4048158736        -1.0505556971
        0.4050000000        -0.1657361228         2.1600283348         1.4475893834         2.7839501142         2.8729172798        -1.3892167552
        0.4100000000        -0.2058626088         2.1397462682         1.4220661148         2.7890538691         2.2080440376        -1.7255609730
        0.4150000000        -0.2456457712         2.1194929149         1.4067521537         2.7941576240         1.8091200922        -2.0590274187
        0.4200000000        -0.2850192625         2.0993030471         1.3735719045         2.7941576240         0.9447848773        -2.3890599599
        0.4250000000        -0.3239174182         2.0792120951         1.3378393285         2.7967095015         0.0139623381        -2.7151081911
        0.4300000000        -0.3622753667         2.0592561048         1.3123160600         2.7992613789        -0.6509109042        -3.0366283513
        0.4350000000        -0.4000291372         2.0394716873         1.2765834840         2.7941576240        -1.5817334434        -3.3530842312
        0.4400000000        -0.4371157667         2.0198959631         1.3199730405         2.7839501142        -0.4514489315        -3.6639480676
        0.4450000000        -0.4734734044         2.0005664976         1.2663741766         2.7788463592        -1.8476827403        -3.9687014231
        0.4500000000        -0.5090414158         1.9815212309         1.2689265034         2.7839501142        -1.7811954160        -4.2668360510
        0.4550000000        -0.5437604828         1.9627983982         1.2714788303         2.7762944818        -1.7147080918        -4.5578547427
        0.4600000000        -0.5775727034         1.9444364423         1.2382985811         2.7584313396        -2.5790433068        -4.8412721574
        0.4650000000        -0.6104216880         1.9264739183         1.2382985811         2.7507757072        -2.5790433068        -5.1166156308
        0.4700000000        -0.6422526532         1.9089493883         1.2459555617         2.7533275847        -2.3795813341        -5.3834259642
        0.4750000000        -0.6730125135         1.8919013093         1.2204322931         2.7380163199        -3.0444545763        -5.6412581895
        0.4800000000        -0.7026499698         1.8753679100         1.2102229857         2.7201531777        -3.3104038732        -5.8896823119
        0.4850000000        -0.7311155947         1.8593870617         1.2102229857         2.7150494228        -3.3104038732        -6.1282840266
        0.4900000000        -0.7583619153         1.8439961395         1.2051183320         2.6971862806        -3.4433785217        -6.3566654101
        0.4950000000        -0.7843434919         1.8292318764         1.2178799663         2.6920825256        -3.1109419006        -6.5744455837
        0.5000000000        -0.8090169944         1.8151302109         1.1846997172         2.6742193834        -3.9752771155        -6.7812613486
        0.5050000000        -0.8323412738         1.8017261289         1.1821473903         2.6538043638        -4.0417644397        -6.9767677915
        0.5100000000        -0.8542774317         1.7890535002         1.1923566977         2.6538043638        -3.7758151428        -7.1606388602
        0.5150000000        -0.8747888843         1.7771449124         1.1821473903         2.6384930990        -4.0417644397        -7.3325679074
        0.5200000000        -0.8938414242         1.7660315029         1.1770427366         2.6155262019        -4.1747390882        -7.4922682014
        0.5250000000        -0.9114032766         1.7557427903         1.1693857560         2.5951111822        -4.3742010609        -7.6394734051
        0.5300000000        -0.9274451533         1.7463065080         1.1515194680         2.5823517949        -4.8396123305        -7.7739380198
        0.5350000000        -0.9419403007         1.7377484417         1.1642811023         2.5644886527        -4.5071757093        -7.8954377946
        0.5400000000        -0.9548645447         1.7300922722         1.1438624875         2.5440736330        -5.0390743031        -8.0037701005
        0.5450000000        -0.9661963313         1.7233594269         1.1898043709         2.5287623683        -3.8423024671        -8.0987542684
        0.5500000000        -0.9759167619         1.7175689412         1.1438624875         2.5134511035        -5.0390743031        -8.1802318902
        0.5550000000        -0.9840096257         1.7127373317         1.1413101606         2.4904842064        -5.1055616274        -8.2480670832
        0.5600000000        -0.9904614257         1.7088784844         1.1387578337         2.4777248191        -5.1720489516        -8.3021467163
        0.5650000000        -0.9952614022         1.7060035585         1.1387578337         2.4522060445        -5.1720489516        -8.3423805994
        0.5700000000        -0.9984015501         1.7041209077         1.1362055069         2.4394466572        -5.2385362758        -8.3687016332
        0.5750000000        -0.9998766325         1.7032360213         1.1208915457         2.4113760052        -5.6374602212        -8.3810659211
        0.5800000000        -0.9996841893         1.7033514846         1.1259961995         2.4011684953        -5.5044855727        -8.3794528430
        0.5850000000        -0.9978245415         1.7044669599         1.1208915457         2.3679940883        -5.6374602212        -8.3638650890
        0.5900000000        -0.9943007904         1.7065791896         1.1183392189         2.3424753138        -5.7039475454        -8.3343286552
        0.5950000000        -0.9891188128         1.7096820190         1.1004729309         2.3246121715        -6.1693588150        -8.2908928005
        0.6000000000        -0.9822872507         1.7137664411         1.1106822383         2.3041971519        -5.9034095181        -8.2336299643
        0.6050000000        -0.9738174975         1.7188206596         1.1157868920         2.2761264998        -5.7704348696        -8.1626356456
        0.6100000000        -0.9637236783         1.7248301725         1.1004729309         2.2557114802        -6.1693588150        -8.0780282438
        0.6150000000        -0.9520226269         1.7317778713         1.1208915457         2.2378483379        -5.6374602212        -7.9799488613
        0.6200000000        -0.9387338577         1.7396441571         1.0928159503         2.2097776859        -6.3688207877        -7.8685610682
        0.6250000000        -0.9238795325         1.7484070696         1.1208915457         2.1995701761        -5.6374602212        -7.7440506295
        0.6300000000        -0.9074844245         1.7580424288         1.0826066429         2.1638438916        -6.6347700846        -7.6066251949
        0.6350000000        -0.8895758764         1.7685239853         1.1208915457         2.1536363818        -5.6374602212        -7.4565139534
        0.6400000000        -0.8701837547         1.7798235790         1.1055775846         2.1230138523        -6.0363841665        -7.2939672500
        0.6450000000        -0.8493404003         1.7919113031         1.0979206040         2.1000469552        -6.2358461392        -7.1192561690
        0.6500000000        -0.8270805743         1.8047556705         1.1157868920         2.0847356904        -5.7704348696        -6.9326720816
        0.6550000000        -0.8034414001         1.8183237829         1.1055775846         2.0566650383        -6.0363841665        -6.7345261599
        0.6600000000        -0.7784623016         1.8325814980         1.1055775846         2.0311462638        -6.0363841665        -6.5251488580
        0.6650000000        -0.7521849371         1.8474935961         1.1106822383         2.0107312441        -5.9034095181        -6.3048893610
