% f=1.70Hz  n_cycles=5  N_total=588  dt=0.005000
% Amp=1.5000V  K_lin=5.741200
Time[s]              Vcmd[V]              Vc[V]                Vg[V]                Pot[V]               Omega[rad/s]         Omega_target[rad/s] 
        0.0000000000         0.0000000000         2.5000000000         1.3429439823         2.3348196814         0.1542505922         0.0000000000
        0.0050000000         0.0800725346         2.7287766951         1.3352870017         2.3271640490        -0.0452113805         0.4597124359
        0.0100000000         0.1599167314         2.7556430996         1.3352870017         2.3220602941        -0.0452113805         0.9181139384
        0.0150000000         0.2393049036         2.7822352405         1.3352870017         2.3322678039        -0.0452113805         1.3738973125
        0.0200000000         0.3180106649         2.8084814686         1.3429439823         2.3348196814         0.1542505922         1.8257628292
        0.0250000000         0.3958095749         2.8343119858         1.3327346748         2.3220602941        -0.1116987047         2.2724219317
        0.0300000000         0.4724797795         2.8596589714         1.3454963091         2.3373715588         0.2207379164         2.7126009100
        0.0350000000         0.5478026428         2.8844566970         1.3352870017         2.3297159265        -0.0452113805         3.1450445331
        0.0400000000         0.6215633715         2.9086416310         1.3301823480         2.3246121715        -0.1781860289         3.5685196284
        0.0450000000         0.6935516266         2.9321525322         1.3480486360         2.3322678039         0.2872252407         3.9818185984
        0.0500000000         0.7635621236         2.9549305352         1.3301823480         2.3220602941        -0.1781860289         4.3837628642
        0.0550000000         0.8313952181         2.9769192262         1.3403916554         2.3348196814         0.0877632680         4.7732062262
        0.0600000000         0.8968574746         2.9980647113         1.3352870017         2.3297159265        -0.0452113805         5.1490381331
        0.0650000000         0.9597622184         3.0183156779         1.3352870017         2.3195084166        -0.0452113805         5.5101868484
        0.0700000000         1.0199300681         3.0376234485         1.3454963091         2.3348196814         0.2207379164         5.8556225069
        0.0750000000         1.0771894466         3.0559420293         1.3327346748         2.3246121715        -0.1116987047         6.1843600511
        0.0800000000         1.1313770711         3.0732281528         1.3403916554         2.3297159265         0.0877632680         6.4954620406
        0.0850000000         1.1823384180         3.0894413157         1.3454963091         2.3348196814         0.2207379164         6.7880413253
        0.0900000000         1.2299281640         3.1045438121         1.3403916554         2.3297159265         0.0877632680         7.0612635751
        0.0950000000         1.2740106004         3.1185007625         1.3403916554         2.3322678039         0.0877632680         7.3143496590
        0.1000000000         1.3144600201         3.1312801394         1.3429439823         2.3297159265         0.1542505922         7.5465778672
        0.1050000000         1.3511610759         3.1428527895         1.3403916554         2.3297159265         0.0877632680         7.7572859690
        0.1100000000         1.3840091098         3.1531924525         1.3480486360         2.3322678039         0.2872252407         7.9458731012
        0.1150000000         1.4129104511         3.1622757779         1.3403916554         2.3246121715         0.0877632680         8.1118014816
        0.1200000000         1.4377826835         3.1700823389         1.3429439823         2.3322678039         0.1542505922         8.2545979427
        0.1250000000         1.4585548806         3.1765946436         1.3684672508         2.3373715588         0.8191238345         8.3738552805
        0.1300000000         1.4751678075         3.1817981455         1.4577986908         2.3475790687         3.1461801824         8.4692334164
        0.1350000000         1.4875740902         3.1856812506         1.5522347845         2.3628903334         5.6062111788         8.5404603665
        0.1400000000         1.4957383504         3.1882353239         1.5547871113         2.3833053531         5.6726985030         8.5873330173
        0.1450000000         1.4996373067         3.1894546936         1.5369208233         2.4139278826         5.2072872334         8.6097177050
        0.1500000000         1.4992598405         3.1893366542         1.5113975548         2.4190316375         4.5424139912         8.6075505966
        0.1550000000         1.4946070285         3.1878814674         1.5062929011         2.4419985347         4.4094393427         8.5808378718
        0.1600000000         1.4856921385         3.1850923624         1.5011882474         2.4522060445         4.2764646943         8.5296557058
        0.1650000000         1.4725405928         3.1809755343         1.5139498816         2.4726210642         4.6089013154         8.4541500515
        0.1700000000         1.4551898947         3.1755401405         1.5267115159         2.4904842064         4.9413379365         8.3545362237
        0.1750000000         1.4336895222         3.1687982965         1.5318161696         2.5185548584         5.0743125850         8.2310982848
        0.1800000000         1.4081007865         3.1607650694         1.5318161696         2.5338661232         5.0743125850         8.0841882353
        0.1850000000         1.3784966574         3.1514584696         1.5496824576         2.5619367752         5.5397238546         7.9142250094
        0.1900000000         1.3449615552         3.1408994407         1.5394731502         2.5721442851         5.2737745577         7.7216932806
        0.1950000000         1.3075911098         3.1291118480         1.5522347845         2.6027668146         5.6062111788         7.5071420796
        0.2000000000         1.2664918883         3.1161224635         1.5445778039         2.6180780793         5.4067492061         7.2711832288
        0.2050000000         1.2217810906         3.1019609491         1.5394731502         2.6359412215         5.2737745577         7.0144895974
        0.2100000000         1.1735862159         3.0866598373         1.5496824576         2.6614599961         5.5397238546         6.7377931825
        0.2150000000         1.1220446984         3.0702545084         1.5573394382         2.6895306482         5.7391858272         6.4418830222
        0.2200000000         1.0673035158         3.0527831642         1.5496824576         2.7022900355         5.5397238546         6.1276029450
        0.2250000000         1.0095187703         3.0342867983         1.5445778039         2.7303606875         5.4067492061         5.7958491638
        0.2300000000         0.9488552429         3.0148091622         1.5420254771         2.7405681974         5.3402618819         5.4475677204
        0.2350000000         0.8854859240         2.9943967265         1.5598917651         2.7762944818         5.8056731515         5.0837517871
        0.2400000000         0.8195915201         2.9730986374         1.5445778039         2.7890538691         5.4067492061         4.7054388352
        0.2450000000         0.7513599380         2.9509666673         1.5343684965         2.8018132564         5.1407999092         4.3137076763
        0.2500000000         0.6809857496         2.9280551593         1.5369208233         2.8298839084         5.2072872334         3.9096753857
        0.2550000000         0.6086696365         2.9044209649         1.5343684965         2.8502989281         5.1407999092         3.4944941171
        0.2600000000         0.5346178181         2.8801233748         1.5343684965         2.8707139478         5.1407999092         3.0693478171
        0.2650000000         0.4590414633         2.8552240405         1.5292638428         2.8911289674         5.0078252608         2.6354488490
        0.2700000000         0.3821560885         2.8297868887         1.5292638428         2.9089921097         5.0078252608         2.1940345354
        0.2750000000         0.3041809430         2.8038780247         1.5241591891         2.9345108842         4.8748506123         1.7463636302
        0.2800000000         0.2253383837         2.7775656269         1.5088452279         2.9472702715         4.4759266669         1.2937127284
        0.2850000000         0.1458532409         2.7509198295         1.5139498816         2.9625815363         4.6089013154         0.8373726266
        0.2900000000         0.0659521775         2.7240125944         1.5062929011         2.9906521883         4.4094393427         0.3786446413
        0.2950000000        -0.0141369576         2.5000000000         1.4960835936         2.9932040658         4.1434900458        -0.0811631013
        0.3000000000        -0.0941857793         2.2436324785         1.4884266131         3.0161709629         3.9440280731        -0.5407393961
        0.3050000000        -0.1739660172         2.2204650097         1.4884266131         3.0238265953         3.9440280731        -0.9987736980
        0.3100000000        -0.2532501671         2.1973517527         1.4884266131         3.0518972474         3.9440280731        -1.4539598592
        0.3150000000        -0.3318121392         2.1743596426         1.4475893834         3.0544491248         2.8802308855        -1.9049998535
        0.3200000000        -0.4094279033         2.1515560507         1.4450370565         3.0723122670         2.8137435613        -2.3506074783
        0.3250000000        -0.4858761273         2.1290085871         1.4246184417         3.0825197769         2.2818449675        -2.7895120220
        0.3300000000        -0.5609388086         2.1067848919         1.3965428462         3.0901754092         1.5504844010        -3.2204618880
        0.3350000000        -0.6344018956         2.0849524172         1.3786765582         3.0952791642         1.0850731314        -3.6422281632
        0.3400000000        -0.7060558982         2.0635781989         1.3506009628         3.0952791642         0.3537125649        -4.0536081230
        0.3450000000        -0.7756964852         2.0427286209         1.3276300211         3.1003829191        -0.2446733532        -4.4534286609
        0.3500000000        -0.8431250668         2.0224691704         1.3327346748         3.0952791642        -0.1116987047        -4.8405496334
        0.3550000000        -0.9081493611         2.0028641869         1.3352870017         3.0901754092        -0.0452113805        -5.2138671118
        0.3600000000        -0.9705839424         1.9839766058         1.3454963091         3.1003829191         0.2207379164        -5.5723165298
        0.3650000000        -1.0302507698         1.9658676971         1.3174207137         3.0876235318        -0.5106226501        -5.9148757197
        0.3700000000        -1.0869796953         1.9485968026         1.3429439823         3.1003829191         0.1542505922        -6.2405678265
        0.3750000000        -1.1406089484         1.9322210715         1.3327346748         3.0876235318        -0.1116987047        -6.5484640946
        0.3800000000        -1.1909855980         1.9167951982         1.3276300211         3.0952791642        -0.2446733532        -6.8376865151
        0.3850000000        -1.2379659880         1.9023711621         1.3429439823         3.0952791642         0.1542505922        -7.1074103305
        0.3900000000        -1.2814161475         1.8889979744         1.3327346748         3.0876235318        -0.1116987047        -7.3568663863
        0.3950000000        -1.3212121724         1.8767214318         1.3352870017         3.0927272867        -0.0452113805        -7.5853433241
        0.4000000000        -1.3572405787         1.8655838809         1.3378393285         3.0927272867         0.0212759438        -7.7921896104
        0.4050000000        -1.3893986265         1.8556239951         1.3225253674         3.0952791642        -0.3776480016        -7.9768153946
        0.4100000000        -1.4175946128         1.8468765665         1.3352870017         3.0952791642        -0.0452113805        -8.1386941908
        0.4150000000        -1.4417481327         1.8393723156         1.3250776943         3.0901754092        -0.3111606774        -8.2773643794
        0.4200000000        -1.4617903092         1.8331377195         1.2229846200         3.0927272867        -2.9706536464        -8.3924305231
        0.4250000000        -1.4776639892         1.8281948624         1.1081299115         3.0621047572        -5.9625832366        -8.4835644950
        0.4300000000        -1.4893239069         1.8245613093         1.1489671412         3.0391378601        -4.8987860490        -8.5505064140
        0.4350000000        -1.4967368122         1.8222500042         1.1642811023         3.0340341051        -4.4998621037        -8.5930653861
        0.4400000000        -1.4998815663         1.8212691952         1.1923566977         3.0212747179        -3.7685015372        -8.6111200485
        0.4450000000        -1.4987492015         1.8216223855         1.2000136783         3.0059634531        -3.5690395645        -8.6046189157
        0.4500000000        -1.4933429469         1.8233083132         1.1795950634         2.9881003109        -4.1009381583        -8.5735805268
        0.4550000000        -1.4836782192         1.8263209591         1.1489671412         2.9676852912        -4.8987860490        -8.5180933918
        0.4600000000        -1.4697825786         1.8306495811         1.1413101606         2.9498221490        -5.0982480217        -8.4383157401
        0.4650000000        -1.4516956505         1.8362787777         1.1438624875         2.9217514970        -5.0317606975        -8.3344750686
        0.4700000000        -1.4294690123         1.8431885772         1.1617287755         2.9089921097        -4.5663494279        -8.2068674933
        0.4750000000        -1.4031660462         1.8513545524         1.1438624875         2.8860252125        -5.0317606975        -8.0558569047
        0.4800000000        -1.3728617589         1.8607479596         1.1413101606         2.8783695801        -5.0982480217        -7.8818739304
        0.4850000000        -1.3386425672         1.8713359003         1.1413101606         2.8502989281        -5.0982480217        -7.6854147067
        0.4900000000        -1.3006060517         1.8830815026         1.1438624875         2.8349876633        -5.0317606975        -7.4670394643
        0.4950000000        -1.2588606790         1.8959441215         1.1387578337         2.8120207662        -5.1647353459        -7.2273709302
        0.5000000000        -1.2135254916         1.9098795553         1.1285485263         2.7890538691        -5.4306846428        -6.9670925522
        0.5050000000        -1.1647297690         1.9248402753         1.1464148143         2.7711907269        -4.9652733732        -6.6869465500
        0.5100000000        -1.1126126591         1.9407756678         1.1285485263         2.7456719523        -5.4306846428        -6.3877317985
        0.5150000000        -1.0573227809         1.9576322841         1.1387578337         2.7329125650        -5.1647353459        -6.0703015498
        0.5200000000        -0.9990178012         1.9753540975         1.1336531800         2.7124975453        -5.2977099944        -5.7355610000
        0.5250000000        -0.9378639845         1.9938827653         1.1464148143         2.6971862806        -4.9652733732        -5.3844647078
        0.5300000000        -0.8740357195         2.0131578917         1.1413101606         2.6742193834        -5.0982480217        -5.0180138728
        0.5350000000        -0.8077150212         2.0331172926         1.1311008532         2.6461487314        -5.3641973186        -4.6372534799
        0.5400000000        -0.7390910123         2.0536972570         1.1362055069         2.6308374666        -5.2312226702        -4.2432693199
        0.5450000000        -0.6683593836         2.0748328061         1.1489671412         2.6155262019        -4.8987860490        -3.8371848929
        0.5500000000        -0.5957218360         2.0964579470         1.1540717949         2.6053186920        -4.7658114006        -3.4201582046
        0.5550000000        -0.5213855055         2.1185059208         1.1464148143         2.5797999174        -4.9652733732        -2.9933784639
        0.5600000000        -0.4455623724         2.1409094423         1.1438624875         2.5517292654        -5.0317606975        -2.5580626922
        0.5650000000        -0.3684686568         2.1636009320         1.1566241217         2.5415217556        -4.6993240763        -2.1154522524
        0.5700000000        -0.2903242021         2.1865127393         1.1566241217         2.5236586133        -4.6993240763        -1.6668093090
        0.5750000000        -0.2113518479         2.2095773551         1.1668334292         2.5108992261        -4.4333747794        -1.2134132292
        0.5800000000        -0.1317767948         2.2327276149         1.1693857560         2.4879323289        -4.3668874552        -0.7565569345
        0.5850000000        -0.0518259621         2.2558968917         1.1693857560         2.4700691867        -4.3668874552        -0.2975432134
        0.5900000000         0.0282726596         2.5000000000         1.1744904097         2.4522060445        -4.2339128068         0.1623189931
        0.5950000000         0.1082906578         2.7382857084         1.1795950634         2.4343429023        -4.1009381583         0.6217183247
        0.6000000000         0.1879998503         2.7650636058         1.1821473903         2.4164797601        -4.0344508341         1.0793447408
        0.6050000000         0.2671729354         2.7915417487         1.1949090246         2.4088241277        -3.7020142129         1.5338932567
        0.6100000000         0.3455841400         2.8176491260         1.2153276394         2.3960647404        -3.1701156191         1.9840676647
        0.6150000000         0.4230098639         2.8433166238         1.2255369469         2.3833053531        -2.9041663222         2.4285842303
        0.6200000000         0.4992293168         2.8684771473         1.2485078886         2.3628903334        -2.3057804042         2.8661753535
        0.6250000000         0.5740251485         2.8930657320         1.2714788303         2.3603384560        -1.7073944861         3.2955931828
        0.6300000000         0.6471840685         2.9170196443         1.2995544257         2.3526828236        -0.9760339196         3.7156131742
        0.6350000000         0.7184974540         2.9402784725         1.3454963091         2.3628903334         0.2207379164         4.1250375827
        0.6400000000         0.7877619449         2.9627842081         1.3480486360         2.3552347011         0.2872252407         4.5226988783
        0.6450000000         0.8547800242         2.9844813193         1.3480486360         2.3603384560         0.2872252407         4.9074630750
        0.6500000000         0.9193605805         3.0053168166         1.3403916554         2.3628903334         0.0877632680         5.2782329646
        0.6550000000         0.9813194534         3.0252403116         1.3454963091         2.3654422109         0.2207379164         5.6339512459
        0.6600000000         1.0404799587         3.0442040688         1.3506009628         2.3730978433         0.3537125649         5.9736035390
        0.6650000000         1.0966733921         3.0621630518         1.3429439823         2.3603384560         0.1542505922         6.2962212787
