% f=2.00Hz  n_cycles=5  N_total=500  dt=0.005000
% Amp=0.4500V  K_lin=8.298800
Time[s]              Vcmd[V]              Vc[V]                Vg[V]                Pot[V]               Omega[rad/s]         Omega_target[rad/s] 
        0.0000000000         0.0000000000         2.5000000000         0.6129785013         1.6202939929         0.0854362116         0.0000000000
        0.0050000000         0.0282557338         2.5000000000         0.6053215207         1.6151902379        -0.1140257610         0.2344886836
        0.0100000000         0.0563999551         2.5000000000         0.6053215207         1.6151902379        -0.1140257610         0.4680519474
        0.0150000000         0.0843215916         2.7858832157         0.5057807733         1.6228458703        -2.7070314059         0.6997680241
        0.0200000000         0.1119104492         2.7985914838         0.6155308282         1.6279496252         0.1519235359         0.9287224360
        0.0250000000         0.1390576475         2.8111588358         0.6180831550         1.6279496252         0.2184108601         1.1540116048
        0.0300000000         0.1656560487         2.8235331871         0.6129785013         1.6228458703         0.0854362116         1.3747464170
        0.0350000000         0.1916006812         2.8356624732         0.6180831550         1.6253977478         0.2184108601         1.5900557332
        0.0400000000         0.2167891533         2.8474948914         0.6129785013         1.6279496252         0.0854362116         1.7990898258
        0.0450000000         0.2411220577         2.8589791551         0.6104261745         1.6228458703         0.0189488874         2.0010237328
        0.0500000000         0.2645033635         2.8700647593         0.6104261745         1.6228458703         0.0189488874         2.1950605133
        0.0550000000         0.2868407954         2.8807022573         0.6129785013         1.6253977478         0.0854362116         2.3804343928
        0.0600000000         0.3080461977         2.8908435444         0.6078738476         1.6253977478        -0.0475384368         2.5564137852
        0.0650000000         0.3280358823         2.9004421479         0.6078738476         1.6279496252        -0.0475384368         2.7223041804
        0.0700000000         0.3467309592         2.9094535206         0.5951122133         1.6356052576        -0.3799750580         2.8774508846
        0.0750000000         0.3640576475         2.9178353337         0.6053215207         1.6458127674        -0.1140257610         3.0212416048
        0.0800000000         0.3799475665         2.9255477666         0.6053215207         1.6458127674        -0.1140257610         3.1531088647
        0.0850000000         0.3943380060         2.9325537903         0.6053215207         1.6560202773        -0.1140257610         3.2725322444
        0.0900000000         0.4071721736         2.9388194390         0.6129785013         1.6687796646         0.0854362116         3.3790404344
        0.0950000000         0.4183994186         2.9443140679         0.6104261745         1.6713315420         0.0189488874         3.4722130955
        0.1000000000         0.4279754323         2.9490105916         0.6078738476         1.6738834195        -0.0475384368         3.5516825178
        0.1050000000         0.4358624225         2.9528857010         0.6053215207         1.6815390519        -0.1140257610         3.6171350719
        0.1100000000         0.4420292628         2.9559200522         0.6027691939         1.6891946843        -0.1805130853         3.6683124464
        0.1150000000         0.4464516156         2.9580984280         0.6078738476         1.7019540715        -0.0475384368         3.7050126675
        0.1200000000         0.4491120278         2.9594098651         0.6078738476         1.7070578265        -0.0475384368         3.7270908962
        0.1250000000         0.4500000000         2.9598477480         0.6129785013         1.7274728461         0.0854362116         3.7344600000
        0.1300000000         0.4491120278         2.9594098651         0.6129785013         1.7325766011         0.0854362116         3.7270908962
        0.1350000000         0.4464516156         2.9580984280         0.6129785013         1.7427841109         0.0854362116         3.7050126675
        0.1400000000         0.4420292628         2.9559200522         0.6129785013         1.7529916207         0.0854362116         3.6683124464
        0.1450000000         0.4358624225         2.9528857010         0.6078738476         1.7555434982        -0.0475384368         3.6171350719
        0.1500000000         0.4279754323         2.9490105916         0.6078738476         1.7683028855        -0.0475384368         3.5516825178
        0.1550000000         0.4183994186         2.9443140679         0.6155308282         1.7810622728         0.1519235359         3.4722130955
        0.1600000000         0.4071721736         2.9388194390         0.6129785013         1.7938216601         0.0854362116         3.3790404344
        0.1650000000         0.3943380060         2.9325537903         0.6104261745         1.8014772924         0.0189488874         3.2725322444
        0.1700000000         0.3799475665         2.9255477666         0.6129785013         1.8142366797         0.0854362116         3.1531088647
        0.1750000000         0.3640576475         2.9178353337         0.5517226568         1.8142366797        -1.5102595698         3.0212416048
        0.1800000000         0.3467309592         2.9094535206         0.5976645402         1.8320998220        -0.3134877337         2.8774508846
        0.1850000000         0.3280358823         2.9004421479         0.6180831550         1.8474110867         0.2184108601         2.7223041804
        0.1900000000         0.3080461977         2.8908435444         0.6129785013         1.8525148416         0.0854362116         2.5564137852
        0.1950000000         0.2868407954         2.8807022573         0.6206354819         1.8703779838         0.2848981843         2.3804343928
        0.2000000000         0.2645033635         2.8700647593         0.6206354819         1.8780336162         0.2848981843         2.1950605133
        0.2050000000         0.2411220577         2.8589791551         0.6129785013         1.8831373711         0.0854362116         2.0010237328
        0.2100000000         0.2167891533         2.8474948914         0.6078738476         1.8882411261        -0.0475384368         1.7990898258
        0.2150000000         0.1916006812         2.8356624732         0.6129785013         1.9035523908         0.0854362116         1.5900557332
        0.2200000000         0.1656560487         2.8235331871         0.6155308282         1.9137599006         0.1519235359         1.3747464170
        0.2250000000         0.1390576475         2.8111588358         0.6155308282         1.9239674105         0.1519235359         1.1540116048
        0.2300000000         0.1119104492         2.7985914838         0.6104261745         1.9290711654         0.0189488874         0.9287224360
        0.2350000000         0.0843215916         2.7858832157         0.6129785013         1.9418305527         0.0854362116         0.6997680241
        0.2400000000         0.0563999551         2.5000000000         0.6078738476         1.9443824302        -0.0475384368         0.4680519474
        0.2450000000         0.0282557338         2.5000000000         0.6129785013         1.9596936949         0.0854362116         0.2344886836
        0.2500000000         0.0000000000         2.5000000000         0.6129785013         1.9647974498         0.0854362116         0.0000000000
        0.2550000000        -0.0282557338         2.5000000000         0.6129785013         1.9750049597         0.0854362116        -0.2344886836
        0.2600000000        -0.0563999551         2.5000000000         0.6206354819         1.9852124695         0.2848981843        -0.4680519474
        0.2650000000        -0.0843215916         2.1846391537         0.6002168670         1.9852124695        -0.2470004095        -0.6997680241
        0.2700000000        -0.1119104492         2.1710250546         0.6078738476         1.9826605920        -0.0475384368        -0.9287224360
        0.2750000000        -0.1390576475         2.1575651314         0.6129785013         1.9954199793         0.0854362116        -1.1540116048
        0.2800000000        -0.1656560487         2.1443150853         0.5695889448         1.9928681019        -1.0448483002        -1.3747464170
        0.2850000000        -0.1916006812         2.1313305414         0.6129785013         1.9954199793         0.0854362116        -1.5900557332
        0.2900000000        -0.2167891533         2.1186667913         0.6129785013         1.9903162244         0.0854362116        -1.7990898258
        0.2950000000        -0.2411220577         2.1063785220         0.5568273105         1.9928681019        -1.3772849214        -2.0010237328
        0.3000000000        -0.2645033635         2.0945195349         0.6104261745         1.9954199793         0.0189488874        -2.1950605133
        0.3050000000        -0.2868407954         2.0831424537         0.5389610225         1.9928681019        -1.8426961909        -2.3804343928
        0.3100000000        -0.3080461977         2.0722984259         0.6078738476         1.9826605920        -0.0475384368        -2.5564137852
        0.3150000000        -0.3280358823         2.0620368185         0.6129785013         1.9826605920         0.0854362116        -2.7223041804
        0.3200000000        -0.3467309592         2.0524049115         0.6129785013         1.9852124695         0.0854362116        -2.8774508846
        0.3250000000        -0.3640576475         2.0434475925         0.6053215207         1.9699012047        -0.1140257610        -3.0212416048
        0.3300000000        -0.3799475665         2.0352070552         0.6129785013         1.9647974498         0.0854362116        -3.1531088647
        0.3350000000        -0.3943380060         2.0277225064         0.6078738476         1.9520380625        -0.0475384368        -3.2725322444
        0.3400000000        -0.4071721736         2.0210298840         0.6053215207         1.9494861851        -0.1140257610        -3.3790404344
        0.3450000000        -0.4183994186         2.0151615918         0.6180831550         1.9443824302         0.2184108601        -3.4722130955
        0.3500000000        -0.4279754323         2.0101462533         0.6206354819         1.9367267978         0.2848981843        -3.5516825178
        0.3550000000        -0.4358624225         2.0060084896         0.6078738476         1.9214155330        -0.0475384368        -3.6171350719
        0.3600000000        -0.4420292628         2.0027687241         0.6078738476         1.9061042683        -0.0475384368        -3.6683124464
        0.3650000000        -0.4464516156         2.0004430184         0.6078738476         1.8958967584        -0.0475384368        -3.7050126675
        0.3700000000        -0.4491120278         1.9990429406         0.6104261745         1.8907930035         0.0189488874        -3.7270908962
        0.3750000000        -0.4500000000         1.9985754704         0.5874552328         1.8831373711        -0.5794370306        -3.7344600000
        0.3800000000        -0.4491120278         1.9990429406         0.6129785013         1.8729298613         0.0854362116        -3.7270908962
        0.3850000000        -0.4464516156         2.0004430184         0.6129785013         1.8627223515         0.0854362116        -3.7050126675
        0.3900000000        -0.4420292628         2.0027687241         0.5976645402         1.8423073318        -0.3134877337        -3.6683124464
        0.3950000000        -0.4358624225         2.0060084896         0.6129785013         1.8423073318         0.0854362116        -3.6171350719
        0.4000000000        -0.4279754323         2.0101462533         0.6206354819         1.8372035769         0.2848981843        -3.5516825178
        0.4050000000        -0.4183994186         2.0151615918         0.6104261745         1.8193404347         0.0189488874        -3.4722130955
        0.4100000000        -0.4071721736         2.0210298840         0.6129785013         1.8091329248         0.0854362116        -3.3790404344
        0.4150000000        -0.3943380060         2.0277225064         0.6053215207         1.7938216601        -0.1140257610        -3.2725322444
        0.4200000000        -0.3799475665         2.0352070552         0.6129785013         1.7861660277         0.0854362116        -3.1531088647
        0.4250000000        -0.3640576475         2.0434475925         0.6002168670         1.7759585179        -0.2470004095        -3.0212416048
        0.4300000000        -0.3467309592         2.0524049115         0.6206354819         1.7734066404         0.2848981843        -2.8774508846
        0.4350000000        -0.3280358823         2.0620368185         0.6129785013         1.7555434982         0.0854362116        -2.7223041804
        0.4400000000        -0.3080461977         2.0722984259         0.6155308282         1.7453359884         0.1519235359        -2.5564137852
        0.4450000000        -0.2868407954         2.0831424537         0.6180831550         1.7402322334         0.2184108601        -2.3804343928
        0.4500000000        -0.2645033635         2.0945195349         0.6129785013         1.7274728461         0.0854362116        -2.1950605133
        0.4550000000        -0.2411220577         2.1063785220         0.6053215207         1.7096097039        -0.1140257610        -2.0010237328
        0.4600000000        -0.2167891533         2.1186667913         0.5874552328         1.7070578265        -0.5794370306        -1.7990898258
        0.4650000000        -0.1916006812         2.1313305414         0.6002168670         1.6968503166        -0.2470004095        -1.5900557332
        0.4700000000        -0.1656560487         2.1443150853         0.6155308282         1.6866428068         0.1519235359        -1.3747464170
        0.4750000000        -0.1390576475         2.1575651314         0.6206354819         1.6815390519         0.2848981843        -1.1540116048
        0.4800000000        -0.1119104492         2.1710250546         0.6206354819         1.6738834195         0.2848981843        -0.9287224360
        0.4850000000        -0.0843215916         2.1846391537         0.6129785013         1.6585721547         0.0854362116        -0.6997680241
        0.4900000000        -0.0563999551         2.5000000000         0.6155308282         1.6509165224         0.1519235359        -0.4680519474
        0.4950000000        -0.0282557338         2.5000000000         0.6104261745         1.6432608900         0.0189488874        -0.2344886836
        0.5000000000        -0.0000000000         2.5000000000         0.6180831550         1.6407090125         0.2184108601        -0.0000000000
        0.5050000000         0.0282557338         2.5000000000         0.6129785013         1.6305015027         0.0854362116         0.2344886836
        0.5100000000         0.0563999551         2.5000000000         0.6078738476         1.6177421154        -0.0475384368         0.4680519474
        0.5150000000         0.0843215916         2.7858832157         0.6180831550         1.6253977478         0.2184108601         0.6997680241
        0.5200000000         0.1119104492         2.7985914838         0.6053215207         1.6126383605        -0.1140257610         0.9287224360
        0.5250000000         0.1390576475         2.8111588358         0.6078738476         1.6100864830        -0.0475384368         1.1540116048
        0.5300000000         0.1656560487         2.8235331871         0.6180831550         1.6228458703         0.2184108601         1.3747464170
        0.5350000000         0.1916006812         2.8356624732         0.6180831550         1.6228458703         0.2184108601         1.5900557332
        0.5400000000         0.2167891533         2.8474948914         0.6053215207         1.6100864830        -0.1140257610         1.7990898258
        0.5450000000         0.2411220577         2.8589791551         0.6129785013         1.6202939929         0.0854362116         2.0010237328
        0.5500000000         0.2645033635         2.8700647593         0.6129785013         1.6151902379         0.0854362116         2.1950605133
        0.5550000000         0.2868407954         2.8807022573         0.6129785013         1.6100864830         0.0854362116         2.3804343928
        0.5600000000         0.3080461977         2.8908435444         0.6129785013         1.6202939929         0.0854362116         2.5564137852
        0.5650000000         0.3280358823         2.9004421479         0.6053215207         1.6202939929        -0.1140257610         2.7223041804
        0.5700000000         0.3467309592         2.9094535206         0.6180831550         1.6356052576         0.2184108601         2.8774508846
        0.5750000000         0.3640576475         2.9178353337         0.6180831550         1.6407090125         0.2184108601         3.0212416048
        0.5800000000         0.3799475665         2.9255477666         0.6129785013         1.6381571351         0.0854362116         3.1531088647
        0.5850000000         0.3943380060         2.9325537903         0.6053215207         1.6407090125        -0.1140257610         3.2725322444
        0.5900000000         0.4071721736         2.9388194390         0.6078738476         1.6585721547        -0.0475384368         3.3790404344
        0.5950000000         0.4183994186         2.9443140679         0.6104261745         1.6636759097         0.0189488874         3.4722130955
        0.6000000000         0.4279754323         2.9490105916         0.6053215207         1.6636759097        -0.1140257610         3.5516825178
        0.6050000000         0.4358624225         2.9528857010         0.6078738476         1.6713315420        -0.0475384368         3.6171350719
        0.6100000000         0.4420292628         2.9559200522         0.6155308282         1.6866428068         0.1519235359         3.6683124464
        0.6150000000         0.4464516156         2.9580984280         0.6180831550         1.7019540715         0.2184108601         3.7050126675
        0.6200000000         0.4491120278         2.9594098651         0.6129785013         1.7045059490         0.0854362116         3.7270908962
        0.6250000000         0.4500000000         2.9598477480         0.6027691939         1.7070578265        -0.1805130853         3.7344600000
        0.6300000000         0.4491120278         2.9594098651         0.6129785013         1.7249209687         0.0854362116         3.7270908962
        0.6350000000         0.4464516156         2.9580984280         0.6027691939         1.7300247236        -0.1805130853         3.7050126675
        0.6400000000         0.4420292628         2.9559200522         0.6155308282         1.7504397433         0.1519235359         3.6683124464
        0.6450000000         0.4358624225         2.9528857010         0.6129785013         1.7529916207         0.0854362116         3.6171350719
        0.6500000000         0.4279754323         2.9490105916         0.6129785013         1.7606472531         0.0854362116         3.5516825178
        0.6550000000         0.4183994186         2.9443140679         0.6002168670         1.7759585179        -0.2470004095         3.4722130955
        0.6600000000         0.4071721736         2.9388194390         0.6078738476         1.7810622728        -0.0475384368         3.3790404344
        0.6650000000         0.3943380060         2.9325537903         0.6078738476         1.7836141502        -0.0475384368         3.2725322444
