% f=1.70Hz  n_cycles=5  N_total=588  dt=0.005000
% Amp=1.0000V  K_lin=8.382100
Time[s]              Vcmd[V]              Vc[V]                Vg[V]                Pot[V]               Omega[rad/s]         Omega_target[rad/s] 
        0.0000000000         0.0000000000         2.5000000000         1.3352870017         1.8397554543        -0.0525249861         0.0000000000
        0.0050000000         0.0533816898         2.5000000000         1.3301823480         1.8346516994        -0.1854996346         0.4474506617
        0.0100000000         0.1066111543         2.7899921246         1.3301823480         1.8346516994        -0.1854996346         0.8936253563
        0.0150000000         0.1595366024         2.8154170647         1.3429439823         1.8474110867         0.1469369865         1.3372517550
        0.0200000000         0.2120071099         2.8408641202         1.3378393285         1.8397554543         0.0139623381         1.7770647961
        0.0250000000         0.2638730500         2.8662603138         1.3352870017         1.8397554543        -0.0525249861         2.2118102921
        0.0300000000         0.3149865197         2.8915306764         1.3378393285         1.8397554543         0.0139623381         2.6402485064
        0.0350000000         0.3652017619         2.9165983862         1.3429439823         1.8474110867         0.1469369865         3.0611576884
        0.0400000000         0.4143755810         2.9413849376         1.3352870017         1.8423073318        -0.0525249861         3.4733375574
        0.0450000000         0.4623677510         2.9658103417         1.3378393285         1.8372035769         0.0139623381         3.8756127260
        0.0500000000         0.5090414158         2.9897933621         1.4475893834         1.8499629642         2.8729172798         4.2668360510
        0.0550000000         0.5542634787         3.0132517889         1.3965428462         1.8550667191         1.5431707953         4.6458919051
        0.0600000000         0.5979049831         3.0361027526         1.3939905194         1.8627223515         1.4766834711         5.0116993585
        0.0650000000         0.6398414790         3.0582630807         1.4399324028         1.8678261064         2.6734553072         5.3632152607
        0.0700000000         0.6799533787         3.0796496969         1.4271707685         1.8754817388         2.3410186860         5.6994372158
        0.0750000000         0.7181262978         3.1001800639         1.4322754222         1.8780336162         2.4739933345         6.0194064405
        0.0800000000         0.7542513807         3.1197726695         1.4705603251         1.9010005134         3.4713031979         6.3222104985
        0.0850000000         0.7882256120         3.1383475511         1.4501417102         1.9061042683         2.9394046041         6.6069859023
        0.0900000000         0.8199521093         3.1558268583         1.4654556714         1.9188636556         3.3383285494         6.8729205756
        0.0950000000         0.8493404003         3.1721354453         1.4731126519         1.9290711654         3.5377905221         7.1192561690
        0.1000000000         0.8763066800         3.1872014866         1.4986359205         1.9545899400         4.2026637644         7.3452902228
        0.1050000000         0.9007740506         3.2009571085         1.4833219594         1.9622455724         3.8037398190         7.5503781696
        0.1100000000         0.9226727399         3.2133390228         1.4884266131         1.9750049597         3.9367144675         7.7339351729
        0.1150000000         0.9419403007         3.2242891535         1.4909789399         1.9852124695         4.0032017917         7.8954377946
        0.1200000000         0.9585217890         3.2337552419         1.4960835936         2.0005237343         4.1361764401         8.0344254877
        0.1250000000         0.9723699204         3.2416914150         1.4986359205         2.0183868765         4.2026637644         8.1505019098
        0.1300000000         0.9834452050         3.2480587063         1.5062929011         2.0362500187         4.4021257370         8.2433360528
        0.1350000000         0.9917160601         3.2528255114         1.5165022085         2.0643206707         4.6680750340         8.3126631875
        0.1400000000         0.9971589003         3.2559679685         1.5241591891         2.0745281806         4.8675370066         8.3582856179
        0.1450000000         0.9997582044         3.2574702518         1.5241591891         2.0949432002         4.8675370066         8.3800732454
        0.1500000000         0.9995065604         3.2573247685         1.5241591891         2.1077025875         4.8675370066         8.3779639396
        0.1550000000         0.9964046856         3.2555322546         1.5573394382         2.1306694847         5.7318722216         8.3519637155
        0.1600000000         0.9904614257         3.2521017657         1.5445778039         2.1510845043         5.3994356004         8.3021467163
        0.1650000000         0.9816937285         3.2470505630         1.5318161696         2.1714995240         5.0669989793         8.2286550020
        0.1700000000         0.9701265965         3.2404038985         1.5394731502         2.1893626662         5.2664609520         8.1316981444
        0.1750000000         0.9557930148         3.2321947057         1.5496824576         2.2148814408         5.5324102489         8.0115526293
        0.1800000000         0.9387338577         3.2224632052         1.5573394382         2.2352964605         5.7318722216         7.8685610682
        0.1850000000         0.9189977716         3.2112564360         1.5394731502         2.2506077252         5.2664609520         7.7031312213
        0.1900000000         0.8966410368         3.1986277261         1.5598917651         2.2786783773         5.7983595458         7.5157348344
        0.1950000000         0.8717274065         3.1846361161         1.5624440919         2.3067490293         5.8648468700         7.3069062943
        0.2000000000         0.8443279255         3.1693457491         1.5496824576         2.3169565392         5.5324102489         7.0772411044
        0.2050000000         0.8145207271         3.1528252426         1.5879673605         2.3475790687         6.5297201123         6.8273941864
        0.2100000000         0.7823908106         3.1351470533         1.5649964188         2.3756497207         5.9313341943         6.5580780133
        0.2150000000         0.7480297989         3.1163868487         1.5701010725         2.3960647404         6.0643088427         6.2700605774
        0.2200000000         0.7115356772         3.0966228941         1.5496824576         2.4088241277         5.5324102489         5.9641631999
        0.2250000000         0.6730125135         3.0759354654         1.5573394382         2.4292391474         5.7318722216         5.6412581895
        0.2300000000         0.6325701619         3.0544062929         1.5573394382         2.4624135543         5.7318722216         5.3022663542
        0.2350000000         0.5903239494         3.0321180430         1.5547871113         2.4828285740         5.6653848974         4.9481543759
        0.2400000000         0.5463943467         3.0091538399         1.5471301308         2.4879323289         5.4659229247         4.5799320538
        0.2450000000         0.5009066254         2.9855968306         1.5547871113         2.5160029810         5.6653848974         4.1986494244
        0.2500000000         0.4539904997         2.9615297926         1.5394731502         2.5440736330         5.2664609520         3.8053937679
        0.2550000000         0.4057797577         2.9370347859         1.5369208233         2.5517292654         5.1999736278         3.4012865067
        0.2600000000         0.3564118787         2.9121928453         1.5496824576         2.5721442851         5.5324102489         2.9874800086
        0.2650000000         0.3060276422         2.8870837142         1.5369208233         2.6053186920         5.1999736278         2.5651542996
        0.2700000000         0.2547707257         2.8617856148         1.5394731502         2.6257337117         5.2664609520         2.1355136998
        0.2750000000         0.2027872954         2.8363750531         1.5343684965         2.6435968539         5.1334863035         1.6997833884
        0.2800000000         0.1502255891         2.8109266561         1.5267115159         2.6640118736         4.9340243309         1.2592059106
        0.2850000000         0.0972354939         2.7855130371         1.5165022085         2.6793231383         4.6680750340         0.8150376336
        0.2900000000         0.0439681183         2.5000000000         1.5241591891         2.6997381580         4.8675370066         0.3685451646
        0.2950000000        -0.0094246384         2.5000000000         1.5113975548         2.7150494228         4.5351003855        -0.0789982618
        0.3000000000        -0.0627905195         2.2114129306         1.5088452279         2.7278088101         4.4686130613        -0.5263164137
        0.3050000000        -0.1159773448         2.1849799809         1.4782173056         2.7405681974         3.6707651706        -0.9721337019
        0.3100000000        -0.1688334447         2.1584679363         1.4348277491         2.7507757072         2.5404806587        -1.4151788169
        0.3150000000        -0.2212080928         2.1319512346         1.4016475000         2.7635350945         1.6761454438        -1.8541883546
        0.3200000000        -0.2729519355         2.1055064361         1.3659149240         2.7660869720         0.7453229046        -2.2879104187
        0.3250000000        -0.3239174182         2.0792120951         1.3327346748         2.7635350945        -0.1190123104        -2.7151081911
        0.3300000000        -0.3739592057         2.0531486038         1.3276300211         2.7660869720        -0.2519869588        -3.1345634584
        0.3350000000        -0.4229345971         2.0273980056         1.3454963091         2.7711907269         0.2134243108        -3.5450800862
        0.3400000000        -0.4707039322         2.0020437752         1.3327346748         2.7609832170        -0.1190123104        -3.9454874298
        0.3450000000        -0.5171309901         1.9771705617         1.3276300211         2.7584313396        -0.2519869588        -4.3346436724
        0.3500000000        -0.5620833779         1.9528638931         1.2485078886         2.7558794621        -2.3130940098        -4.7114390815
        0.3550000000        -0.6054329074         1.9292098397         1.2408509080         2.7507757072        -2.5125559825        -5.0747991730
        0.3600000000        -0.6470559616         1.9062946351         1.2791358108         2.7456719523        -1.5152461191        -5.4236877755
        0.3650000000        -0.6868338465         1.8842042528         1.2408509080         2.7380163199        -2.5125559825        -5.7571099851
        0.3700000000        -0.7246531302         1.8630239412         1.2000136783         2.7278088101        -3.5763531702        -6.0741150025
        0.3750000000        -0.7604059656         1.8428377154         1.2382985811         2.7150494228        -2.5790433068        -6.3737988443
        0.3800000000        -0.7939903986         1.8237278113         1.2025660052         2.7099456679        -3.5098658459        -6.6553069205
        0.3850000000        -0.8253106587         1.8057741043         1.2280892737         2.6997381580        -2.8449926037        -6.9178364722
        0.3900000000        -0.8542774317         1.7890535002         1.2025660052         2.6793231383        -3.5098658459        -7.1606388602
        0.3950000000        -0.8808081149         1.7736393045         1.1668334292         2.6563562412        -4.4406883851        -7.3830217001
        0.4000000000        -0.9048270525         1.7596005817         1.1949090246         2.6461487314        -3.7093278186        -7.5843508365
        0.4050000000        -0.9262657510         1.7470015127         1.1795950634         2.6435968539        -4.1082517640        -7.7640521516
        0.4100000000        -0.9450630752         1.7359007657         1.1642811023         2.6180780793        -4.5071757093        -7.9216132025
        0.4150000000        -0.9611654218         1.7263508911         1.1821473903         2.6027668146        -4.0417644397        -8.0565846820
        0.4200000000        -0.9745268728         1.7183977567         1.1515194680         2.5874555498        -4.8396123305        -8.1685817004
        0.4250000000        -0.9851093262         1.7120800357         1.1566241217         2.5670405302        -4.7066376820        -8.2572848828
        0.4300000000        -0.9928826046         1.7074287613         1.1515194680         2.5517292654        -4.8396123305        -8.3224412798
        0.4350000000        -0.9978245415         1.7044669599         1.1489671412         2.5262104908        -4.9060996547        -8.3638650890
        0.4400000000        -0.9999210442         1.7032093741         1.1591764486         2.5236586133        -4.6401503578        -8.3814381846
        0.4450000000        -0.9991661343         1.7036622826         1.1438624875         2.5032435937        -5.0390743031        -8.3751104547
        0.4500000000        -0.9955619646         1.7058234228         1.1157868920         2.4700691867        -5.7704348696        -8.3448999435
        0.4550000000        -0.9891188128         1.7096820190         1.1311008532         2.4573097994        -5.3715109243        -8.2908928005
        0.4600000000        -0.9798550524         1.7152189143         1.1489671412         2.4343429023        -4.9060996547        -8.2132430346
        0.4650000000        -0.9677971003         1.7224068028         1.1132345652         2.4088241277        -5.8369221939        -8.1121720747
        0.4700000000        -0.9529793415         1.7312105558         1.1157868920         2.3935128629        -5.7704348696        -7.9879681385
        0.4750000000        -0.9354440308         1.7415876312         1.1157868920         2.3679940883        -5.7704348696        -7.8409854108
        0.4800000000        -0.9152411726         1.7534885558         1.1336531800         2.3501309461        -5.3050236000        -7.6716430330
        0.4850000000        -0.8924283781         1.7668574671         1.0953682772         2.3271640490        -6.3023334634        -7.4804239083
        0.4900000000        -0.8670707012         1.7816327013         1.1311008532         2.3220602941        -5.3715109243        -7.2678733242
        0.4950000000        -0.8392404527         1.7977474126         1.1234438726         2.2863340097        -5.5709728970        -7.0345973982
        0.5000000000        -0.8090169944         1.8151302109         1.1208915457         2.2659189900        -5.6374602212        -6.7812613486
        0.5050000000        -0.7764865127         1.8337058053         1.1208915457         2.2455039703        -5.6374602212        -6.5085875980
        0.5100000000        -0.7417417727         1.8533956404         1.1208915457         2.2250889506        -5.6374602212        -6.2173537133
        0.5150000000        -0.7048818539         1.8741185170         1.1311008532         2.2021220535        -5.3715109243        -5.9083901879
        0.5200000000        -0.6660118674         1.8957911870         1.1106822383         2.1817070338        -5.9034095181        -5.5825780740
        0.5250000000        -0.6252426563         1.9183289165         1.1362055069         2.1536363818        -5.2385362758        -5.2408464697
        0.5300000000        -0.5826904797         1.9416460127         1.1285485263         2.1383251170        -5.4379982485        -4.8841698696
        0.5350000000        -0.5384766808         1.9656563092         1.1387578337         2.1179100974        -5.1720489516        -4.5135653864
        0.5400000000        -0.4927273415         1.9902736088         1.1183392189         2.0974950777        -5.7039475454        -4.1300898496
        0.5450000000        -0.4455729224         2.0154120839         1.1566241217         2.0872875679        -4.7066376820        -3.7348367927
        0.5500000000        -0.3971478906         2.0409866324         1.1387578337         2.0617687933        -5.1720489516        -3.3289333341
        0.5550000000        -0.3475903370         2.0669131927         1.1540717949         2.0515612834        -4.7731250062        -2.9135369635
        0.5600000000        -0.2970415816         2.0931090184         1.1591764486         2.0260425088        -4.6401503578        -2.4898322409
        0.5650000000        -0.2456457712         2.1194929149         1.1617287755         2.0005237343        -4.5736630336        -2.0590274187
        0.5700000000        -0.1935494681         2.1459854418         1.1591764486         1.9877643470        -4.6401503578        -1.6223509961
        0.5750000000        -0.1409012319         2.1725090828         1.1668334292         1.9724530822        -4.4406883851        -1.1810482162
        0.5800000000        -0.0878511966         2.1989883869         1.1795950634         1.9571418174        -4.1082517640        -0.7363775146
        0.5850000000        -0.0345506414         2.5000000000         1.1770427366         1.9392786752        -4.1747390882        -0.2896069311
        0.5900000000         0.0188484397         2.5000000000         1.2000136783         1.9341749203        -3.5763531702         0.1579895065
        0.5950000000         0.0721937719         2.7735858903         1.2000136783         1.9137599006        -3.5763531702         0.6051354153
        0.6000000000         0.1253332336         2.7989586188         1.2102229857         1.8984486359        -3.3104038732         1.0505556971
        0.6050000000         0.1781152903         2.8243995676         1.2663741766         1.8933448810        -1.8476827403         1.4929801745
        0.6100000000         0.2303894267         2.8498371101         1.3021067526         1.8907930035        -0.9168602011         1.9311472133
        0.6150000000         0.2820065759         2.8751975518         1.3454963091         1.8958967584         0.2134243108         2.3638073199
        0.6200000000         0.3328195445         2.9004052525         1.3480486360         1.8882411261         0.2799116350         2.7897267041
        0.6250000000         0.3826834324         2.9253827753         1.3199730405         1.8831373711        -0.4514489315         3.2076907984
        0.6300000000         0.4314560457         2.9500510662         1.3531532897         1.8958967584         0.4128862834         3.6165077205
        0.6350000000         0.4789983026         2.9743296673         1.3352870017         1.8907930035        -0.0525249861         4.0150116726
        0.6400000000         0.5251746300         2.9981369654         1.3276300211         1.8831373711        -0.2519869588         4.4020662658
        0.6450000000         0.5698533495         3.0213904796         1.3480486360         1.8933448810         0.2799116350         4.7765677606
        0.6500000000         0.6129070537         3.0440071908         1.4756649788         1.9035523908         3.6042778463         5.1374482144
        0.6550000000         0.6542129689         3.0659039123         1.4041998268         1.9010005134         1.7426327680         5.4836785269
        0.6600000000         0.6936533058         3.0869977055         1.4067521537         1.9112080232         1.8091200922         5.8142713747
        0.6650000000         0.7311155947         3.1072063373         1.4654556714         1.9239674105         3.3383285494         6.1282840266
