% f=2.80Hz  n_cycles=5  N_total=357  dt=0.005000
% Amp=2.0000V  K_lin=4.959600
Time[s]              Vcmd[V]              Vc[V]                Vg[V]                Pot[V]               Omega[rad/s]         Omega_target[rad/s] 
        0.0000000000         0.0000000000         2.5000000000         1.3454963091         1.0588809519         0.2051133952         0.0000000000
        0.0050000000         0.1757023931         2.7696125334         1.3378393285         1.0512253195         0.0056514226         0.8714135888
        0.0100000000         0.3500461180         2.8241697628         1.3327346748         1.0512253195        -0.1273232259         1.7360887266
        0.0150000000         0.5216830126         2.8779163434         1.3378393285         1.0512253195         0.0056514226         2.5873390692
        0.0200000000         0.6892858463         2.9304346127         1.3378393285         1.0512253195         0.0056514226         3.4185820836
        0.0250000000         0.8515585831         2.9813156392         1.3429439823         1.0563290744         0.1386260710         4.2233899489
        0.0300000000         1.0072464033         3.0301624688         1.3352870017         1.0486734420        -0.0608359017         4.9955392617
        0.0350000000         1.1551454068         3.0765933020         1.3352870017         1.0512253195        -0.0608359017         5.7290591598
        0.0400000000         1.2941119231         3.1202445715         1.3454963091         1.0461215646         0.2051133952         6.4182774940
        0.0450000000         1.4230713544         3.1607738935         1.4807696325         1.0563290744         3.7289415793         7.0578646894
        0.0500000000         1.5410264856         3.1978628663         1.4195137880         1.0741922166         2.1332457978         7.6428749577
        0.0550000000         1.6470651953         3.2312196879         1.4169614611         1.0767440941         2.0667584736         8.1687845424
        0.0600000000         1.7403675093         3.2605815698         1.4884266131         1.0843997265         3.9284035519         8.6315266993
        0.0650000000         1.8202119414         3.2857169210         1.4731126519         1.1073666236         3.5294796066         9.0275231444
        0.0700000000         1.8859810718         3.3064272827         1.5011882474         1.1175741334         4.2608401731         9.3537117236
        0.0750000000         1.9371663223         3.3225489916         1.5088452279         1.1354372756         4.4603021457         9.6075700919
        0.0800000000         1.9733718884         3.3339545573         1.5011882474         1.1481966629         4.2608401731         9.7871352178
        0.0850000000         1.9943178005         3.3405537374         1.5343684965         1.1635079277         5.1251753880         9.8910185635
        0.0900000000         1.9998420884         3.3422943007         1.5292638428         1.1890267023         4.9922007396         9.9184168217
        0.0950000000         1.9899020340         3.3391624686         1.5394731502         1.2043379670         5.2581500365         9.8691181276
        0.1000000000         1.9645745015         3.3311830324         1.5547871113         1.2273048642         5.6570739818         9.7435036974
        0.1050000000         1.9240553432         3.3184191428         1.5394731502         1.2400642515         5.2581500365         9.5425448800
        0.1100000000         1.8686578849         3.3009717764         1.5675487456         1.2579273937         5.9895106030         9.2677956460
        0.1150000000         1.7988105031         3.2789788817         1.5598917651         1.2885499232         5.7900486303         8.9213805713
        0.1200000000         1.7150533124         3.2526142168         1.5649964188         1.3089649429         5.9230232787         8.5059784081
        0.1250000000         1.6180339887         3.2220858891         1.5701010725         1.3319318400         6.0559979272         8.0248013706
        0.1300000000         1.5085027615         3.1876346116         1.5726533993         1.3574506146         6.1224852514         7.4815702958
        0.1350000000         1.3873066116         3.1495316958         1.5777580530         1.3778656343         6.2554598999         6.8804858710
        0.1400000000         1.2553827226         3.1080767993         1.5726533993         1.4084881638         6.1224852514         6.2261961509
        0.1450000000         1.1137512330         3.0635954514         1.5803103799         1.4340069384         6.3219472241         5.5237606151
        0.1500000000         0.9635073482         3.0164363810         1.5726533993         1.4442144482         6.1224852514         4.7786110441
        0.1550000000         0.8058128714         2.9669686718         1.5726533993         1.4722851002         6.1224852514         3.9965095171
        0.1600000000         0.6418872196         2.9155787721         1.5701010725         1.4875963650         6.0559979272         3.1835038544
        0.1650000000         0.4729979940         2.8626673858         1.6058336485         1.5258745269         6.9868204664         2.3458808513
        0.1700000000         0.3004511782         2.8086462729         1.5598917651         1.5411857916         5.7900486303         1.4901176636
        0.1750000000         0.1255810391         2.7539349869         1.5573394382         1.5539451789         5.7235613061         0.6228317213
        0.1800000000        -0.0502601909         2.2699125625         1.5496824576         1.5845677084         5.5240993334        -0.2492704427
        0.1850000000        -0.2257127697         2.2057040609         1.5292638428         1.5973270957         4.9922007396        -1.1194450528
        0.1900000000        -0.3994199610         2.1430572349         1.4935312668         1.6151902379         4.0613782004        -1.9809632387
        0.1950000000        -0.5700385249         2.0823807126         1.4833219594         1.6432608900         3.7954289035        -2.8271630683
        0.2000000000        -0.7362491054         2.0240551064         1.4501417102         1.6534683998         2.9310936885        -3.6515010630
        0.2050000000        -0.8967664322         1.9684331435         1.4093044805         1.6611240322         1.8672965009        -4.4476027970
        0.2100000000        -1.0503492599         1.9158399547         1.3659149240         1.6636759097         0.7370119891        -5.2093121895
        0.2150000000        -1.1958099661         1.8665734651         1.3123160600         1.6585721547        -0.6592218197        -5.9307391079
        0.2200000000        -1.3320237349         1.8209048414         1.2791358108         1.6611240322        -1.5235570347        -6.6063049155
        0.2250000000        -1.4579372548         1.7790789615         1.2867927914         1.6509165224        -1.3240950620        -7.2307856091
        0.2300000000        -1.5725768643         1.7413148829         1.2382985811         1.6381571351        -2.5873542223        -7.7993522160
        0.2350000000        -1.6750560801         1.7078062907         1.2255369469         1.6330533802        -2.9197908434        -8.3076081348
        0.2400000000        -1.7645824529         1.6787219133         1.2331939274         1.6305015027        -2.7203288707        -8.7516231333
        0.2450000000        -1.8404636947         1.6542058954         1.1744904097         1.6100864830        -4.2495373279        -9.1279637404
        0.2500000000        -1.9021130326         1.6343781259         1.2051183320         1.6075346056        -3.4516894372        -9.4337197964
        0.2550000000        -1.9490537456         1.6193345127         1.1591764486         1.5820158310        -4.6484612733        -9.6665269565
        0.2600000000        -1.9809228514         1.6091472065         1.1617287755         1.5641526888        -4.5819739491        -9.8245849738
        0.2650000000        -1.9974739132         1.6038647694         1.1515194680         1.5564970564        -4.8479232460        -9.9066716200
        0.2700000000        -1.9985789453         1.6035122885         1.1285485263         1.5309782818        -5.4463091640        -9.9121521370
        0.2750000000        -1.9842294026         1.6080914356         1.1285485263         1.5054595072        -5.4463091640        -9.8409841453
        0.2800000000        -1.9545362471         1.6175804709         1.1208915457         1.4901482425        -5.6457711367        -9.6937179713
        0.2850000000        -1.9097290895         1.6319341916         1.1132345652         1.4697332228        -5.8452331094        -9.4714923923
        0.2900000000        -1.8501544137         1.6510838259         1.1208915457         1.4442144482        -5.6457711367        -9.1760258300
        0.2950000000        -1.7762728976         1.6749368720         1.0902636235         1.4212475511        -6.4436190274        -8.8096030631
        0.3000000000        -1.6886558510         1.7033768828         1.1183392189         1.4033844088        -5.7122584609        -8.3750575586
        0.3050000000        -1.5879807973         1.7362631974         1.0877112966         1.3804175117        -6.5101063517        -7.8757495623
        0.3100000000        -1.4750262347         1.7734306212         1.1055775846         1.3574506146        -6.0446950821        -7.3155401137
        0.3150000000        -1.3506656162         1.8146890590         1.0800543160         1.3319318400        -6.7095683243        -6.6987611903
        0.3200000000        -1.2158605954         1.8598231046         1.0979206040         1.3115168203        -6.2441570547        -6.0301822089
        0.3250000000        -1.0716535900         1.9085915971         1.1004729309         1.2808942908        -6.1776697305        -5.3149731448
        0.3300000000        -0.9191597212         1.9607271543         1.1081299115         1.2579273937        -5.9782077578        -4.5586645535
        0.3350000000        -0.7595581910         2.0159357021         1.1081299115         1.2451680064        -5.9782077578        -3.7671048043
        0.3400000000        -0.5940831632         2.0738960217         1.1157868920         1.2170973543        -5.7787457852        -2.9464148560
        0.3450000000        -0.4240142198         2.1342593490         1.1234438726         1.1966823347        -5.5792838125        -2.1029409247
        0.3500000000        -0.2506664671         2.1966490675         1.1183392189         1.1737154375        -5.7122584609        -1.2432054104
        0.3550000000        -0.0753803653         2.2606605515         1.1234438726         1.1481966629        -5.5792838125        -0.3738564599
        0.3600000000         0.1004886364         2.7460874439         1.1208915457         1.1252297658        -5.6457711367         0.4983834409
        0.3650000000         0.2755805814         2.8008627733         1.1617287755         1.1175741334        -4.5819739491         1.3667694514
        0.3700000000         0.4485415219         2.8550083100         1.2076706589         1.1048147461        -3.3852021130         2.2245865320
        0.3750000000         0.6180339887         2.9081036558         1.2357462543         1.0818478490        -2.6538415465         3.0652013706
        0.3800000000         0.7827473337         2.9597357365         1.2791358108         1.0818478490        -1.5235570347         3.8821136761
        0.3850000000         0.9414078643         3.0095020711         1.3123160600         1.0690884617        -0.6592218197         4.6690064439
        0.3900000000         1.0927886935         3.0570139820         1.3506009628         1.0767440941         0.3380880437         5.4197948041
        0.3950000000         1.2357192262         3.1018997188         1.3480486360         1.0843997265         0.2716007195         6.1286730742
        0.4000000000         1.3690942119         3.1438074667         1.3327346748         1.0767440941        -0.1273232259         6.7901596531
        0.4050000000         1.4918822908         3.1824082145         1.3480486360         1.0843997265         0.2716007195         7.3991394097
        0.4100000000         1.6031339697         3.2173984521         1.3863335388         1.0818478490         1.2689105829         7.9509032363
        0.4150000000         1.7019889636         3.2485026753         1.4986359205         1.0920553588         4.1943528488         8.4411844638
        0.4200000000         1.7876828483         3.2754756710         1.4271707685         1.0997109912         2.3327077705         8.8661918544
        0.4250000000         1.8595529718         3.2981045609         1.4399324028         1.1073666236         2.6651443916         9.2226389188
        0.4300000000         1.9170435780         3.3162105836         1.5241591891         1.1175741334         4.8592260911         9.5077693296
        0.4350000000         1.9597101048         3.3296505965         1.4858742862         1.1328853982         3.8619162277         9.7193782356
        0.4400000000         1.9872226210         3.3383182820         1.5139498816         1.1533004179         4.5932767942         9.8558293113
        0.4450000000         1.9993683786         3.3421450452         1.5139498816         1.1788191925         4.5932767942         9.9160674103
        0.4500000000         1.9960534569         3.3411005947         1.5445778039         1.1864748248         5.3911246849         9.8996267246
        0.4550000000         1.9773034895         3.3351931984         1.5522347845         1.2017860896         5.5905866576         9.8066343864
        0.4600000000         1.9432634658         3.3244696139         1.5394731502         1.2273048642         5.2581500365         9.6378094851
        0.4650000000         1.8941966100         3.3090146928         1.5445778039         1.2528236388         5.3911246849         9.3944575069
        0.4700000000         1.8304823452         3.2889506629         1.5701010725         1.2706867810         6.0559979272         9.0784602395
        0.4750000000         1.7526133601         3.2644360973         1.5343684965         1.3013093105         5.1251753880         8.6922612207
        0.4800000000         1.6611917984         3.2356645795         1.5701010725         1.3115168203         6.0559979272         8.2388468433
        0.4850000000         1.5569246031         3.2028630796         1.5598917651         1.3395874724         5.7900486303         7.7217232617
        0.4900000000         1.4406180498         3.1662900574         1.5777580530         1.3676581244         6.2554598999         7.1448892797
        0.4950000000         1.3131715115         3.1262333128         1.5752057262         1.3829693892         6.1889725756         6.5128054285
        0.5000000000         1.1755705046         3.0830076034         1.5752057262         1.4186956736         6.1889725756         5.8303594745
        0.5050000000         1.0288790676         3.0369520542         1.5752057262         1.4314550609         6.1889725756         5.1028286235
        0.5100000000         0.8742315333         2.9884273839         1.5624440919         1.4569738355         5.8565359545         4.3358387126
        0.5150000000         0.7128237574         2.9378129732         1.5726533993         1.4799407326         6.1224852514         3.5353207073
        0.5200000000         0.5459038710         2.8855038035         1.5726533993         1.5029076297         6.1224852514         2.7074648388
        0.5250000000         0.3747626292         2.8319072929         1.5471301308         1.5182188945         5.4576120091         1.8586727356
        0.5300000000         0.2007234297         2.7774400574         1.5598917651         1.5462895465         5.7900486303         0.9955079220
        0.5350000000         0.0251320798         2.5000000000         1.5496824576         1.5616008113         5.5240993334         0.1246450628
        0.5400000000        -0.1506536111         2.2330555824         1.5369208233         1.5845677084         5.1916627122        -0.7471816494
        0.5450000000        -0.3252743304         2.1696877978         1.5241591891         1.6024308506         4.8592260911        -1.6132305690
        0.5500000000        -0.4973797743         2.1081186212         1.4986359205         1.6253977478         4.1943528488        -2.4668047288
        0.5550000000        -0.6656390890         2.0487406676         1.4782173056         1.6356052576         3.6624542550        -3.3013036260
        0.5600000000        -0.8287511620         1.9919185874         1.4501417102         1.6585721547         2.9310936885        -4.1102742630
        0.5650000000        -0.9854546831         1.9379892954         1.4016475000         1.6662277871         1.6678345282        -4.8874610463
        0.5700000000        -1.1345378983         1.8872623239         1.3633625971         1.6687796646         0.6705246648        -5.6268541602
        0.5750000000        -1.2748479795         1.8400202506         1.2561648691         1.6636759097        -2.1219429527        -6.3227360391
        0.5800000000        -1.4052999396         1.7965191621         1.3072114063         1.6585721547        -0.7921964682        -6.9697255804
        0.5850000000        -1.5248850220         1.7569891255         1.2612695229         1.6509165224        -1.9889683042        -7.5628197552
        0.5900000000        -1.6326785014         1.7216346467         1.2382985811         1.6458127674        -2.5873542223        -8.0974322957
        0.5950000000        -1.7278468344         1.6906351014         1.2510602154         1.6381571351        -2.2549176011        -8.5694291598
        0.6000000000        -1.8096541049         1.6641451274         1.2051183320         1.6305015027        -3.4516894372        -8.9751604988
        0.6050000000        -1.8774677153         1.6422949722         1.1821473903         1.6126383605        -4.0500753553        -9.3114888808
        0.6100000000        -1.9307632777         1.6251907907         1.1923566977         1.5998789732        -3.7841260584        -9.5758135519
        0.6150000000        -1.9691286691         1.6129148915         1.1719380829         1.5871195859        -4.3160246522        -9.7660905471
        0.6200000000        -1.9922672183         1.6055259289         1.1642811023         1.5692564437        -4.5154866249        -9.8808484958
        0.6250000000        -2.0000000000         1.6030590403         1.1336531800         1.5488414240        -5.3133345156        -9.9192000000
        0.6300000000        -1.9922672183         1.6055259289         1.1413101606         1.5335301593        -5.1138725429        -9.8808484958
        0.6350000000        -1.9691286691         1.6129148915         1.1285485263         1.5054595072        -5.4463091640        -9.7660905471
        0.6400000000        -1.9307632777         1.6251907907         1.1234438726         1.4927001199        -5.5792838125        -9.5758135519
        0.6450000000        -1.8774677153         1.6422949722         1.1183392189         1.4697332228        -5.7122584609        -9.3114888808
        0.6500000000        -1.8096541049         1.6641451274         1.1081299115         1.4467663256        -5.9782077578        -8.9751604988
        0.6550000000        -1.7278468344         1.6906351014         1.1030252578         1.4186956736        -6.1111824063        -8.5694291598
        0.6600000000        -1.6326785014         1.7216346467         1.1106822383         1.3982806539        -5.9117204336        -8.0974322957
        0.6650000000        -1.5248850220         1.7569891255         1.0851589698         1.3727618793        -6.5765936759        -7.5628197552
