% f=4.30Hz  n_cycles=5  N_total=232  dt=0.005000
% Amp=400.00deg/s
Time[s]              OmegaCmd[deg/s]      Vc[V]                Vg[V]                Pot[V]               Omega[rad/s]         Omega_target[rad/s] 
        0.0000000000         0.0000000000         2.4974092728         1.3327346748         0.9057683043        -0.1356341414         0.0000000000
        0.0050000000        53.8711957989         2.7596576265         1.3352870017         0.9108720593        -0.0691468172         0.9402297387
        0.0100000000       106.7607957282         2.8225458808         1.3301823480         0.9032164269        -0.2021214656         1.8633273975
        0.0150000000       157.7050897372         2.8809206395         1.3301823480         0.9032164269        -0.2021214656         2.7524730631
        0.0200000000       205.7758135126         2.9342277973         1.3352870017         0.9108720593        -0.0691468172         3.5914654668
        0.0250000000       250.0970625343         2.9820624506         1.3429439823         0.9083201818         0.1303151555         4.3650171908
        0.0300000000       289.8612520748         3.0240975997         1.3352870017         0.9083201818        -0.0691468172         5.0590332227
        0.0350000000       324.3438323329         3.0600269724         1.3301823480         0.9032164269        -0.2021214656         5.6608677827
        0.0400000000       352.9164905740         3.0895345105         1.3352870017         0.9083201818        -0.0691468172         6.1595547451
        0.0450000000       375.0585997189         3.1122949406         1.3327346748         0.9032164269        -0.1356341414         6.5460074530
        0.0500000000       390.3667047755         3.1280009368         1.3327346748         0.9032164269        -0.1356341414         6.8131842885
        0.0550000000       398.5618742578         3.1364051511         1.3378393285         0.9108720593        -0.0026594930         6.9562169787
        0.0600000000       399.4947826424         3.1373618264         1.3378393285         0.9108720593        -0.0026594930         6.9724993016
        0.0650000000       393.1484312530         3.1308537409         1.3429439823         0.9108720593         0.1303151555         6.8617345744
        0.0700000000       379.6384579961         3.1169954928         1.3378393285         0.9108720593        -0.0026594930         6.6259410592
        0.0750000000       359.2110303042         3.0960120382         1.3403916554         0.9108720593         0.0638278313         6.2694151883
        0.0800000000       332.2383596783         3.0681996181         1.3352870017         0.9057683043        -0.0691468172         5.7986532778
        0.0850000000       299.2119195614         3.0338823399         1.3531532897         0.9083201818         0.3962644524         5.2222331576
        0.0900000000       260.7334901204         2.9933798778         1.4041998268         0.9210795691         1.7260109369         4.5506578728
        0.0950000000       217.5041931115         2.9469993360         1.4348277491         0.9312870789         2.5238588276         3.7961643067
        0.1000000000       170.3117166260         2.8950578698         1.4731126519         0.9338389564         3.5211686910         2.9725002098
        0.1050000000       120.0159624965         2.8379339494         1.4986359205         0.9517020986         4.1860419333         2.0946737005
        0.1100000000        67.5333778851         2.7761365894         1.4884266131         0.9644614859         3.9200926364         1.1786797991
        0.1150000000        13.8202565498         2.6498927775         1.4909789399         0.9874283830         3.9865799606         0.2412089803
        0.1200000000       -40.1446859405         2.2476535661         1.4705603251         1.0001877703         3.4546813668        -0.7006569468
        0.1250000000       -93.3781455424         2.1748756651         1.4680079982         1.0103952802         3.3881940426        -1.6297560891
        0.1300000000      -144.9101466818         2.1093276749         1.4526940371         1.0231546675         2.9892700972        -2.5291591791
        0.1350000000      -193.8017163378         2.0507674363         1.4603510177         1.0359140547         3.1887320699        -3.3824780461
        0.1400000000      -239.1619932230         1.9989200671         1.4144091342         1.0359140547         1.9919602338        -4.1741642274
        0.1450000000      -280.1644603135         1.9535970568         1.3863335388         1.0308102998         1.2605996673        -4.8897922795
        0.1500000000      -316.0620049503         1.9147625106         1.3659149240         1.0410178097         0.7287010735        -5.5163226268
        0.1550000000      -346.2005321012         1.8825445881         1.3557056165         1.0537771970         0.4627517766        -6.0423391573
        0.1600000000      -370.0308827338         1.8571997984         1.3327346748         1.0486734420        -0.1356341414        -6.4582572378
        0.1650000000      -387.1188401315         1.8390452334         1.3378393285         1.0537771970        -0.0026594930        -6.7564983568
        0.1700000000      -397.1530418279         1.8283780397         1.3352870017         1.0486734420        -0.0691468172        -6.9316282142
        0.1750000000      -399.9506529927         1.8254019700         1.3378393285         1.0461215646        -0.0026594930        -6.9804557402
        0.1800000000      -395.4606978952         1.8301778549         1.3378393285         1.0537771970        -0.0026594930        -6.9020912405
        0.1850000000      -383.7649887416         1.8426089270         1.3327346748         1.0435696871        -0.1356341414        -6.6979626074
        0.1900000000      -365.0766349614         1.8624641894         1.3327346748         1.0435696871        -0.1356341414        -6.3717893022
        0.1950000000      -339.7361601053         1.8894347377         1.3403916554         1.0461215646         0.0638278313        -5.9295145819
        0.2000000000      -308.2052971103         1.9232105208         1.3097637331         1.0435696871        -0.7340200595        -5.3791972067
        0.2050000000      -271.0585749880         1.9635597123         1.2459555617         1.0384659322        -2.3962031651        -4.7308645993
        0.2100000000      -228.9728502378         2.0103906469         1.1923566977         1.0206027900        -3.7924369739        -3.9963301343
        0.2150000000      -182.7149737337         2.0637776818         1.1693857560         1.0129471576        -4.3908228919        -3.1889778843
        0.2200000000      -133.1278178092         2.1239373694         1.1872520440         1.0027396478        -3.9254116223        -2.3235187468
        0.2250000000       -81.1149181426         2.1911493695         1.2102229857         0.9848765056        -3.3270257043        -1.4157223941
        0.2300000000       -27.6240102858         2.2656264530         1.2127753126         0.9721171183        -3.2605383801        -0.4821299321
        0.2350000000        26.3702391805         2.7259764589         1.2255369469         0.9568058535        -2.9281017589         0.4602474982
        0.2400000000        79.8839922058         2.7908916075         1.2178799663         0.9440464662        -3.1275637316         1.3942386836
        0.2450000000       131.9421659435         2.8516570665         1.2357462543         0.9338389564        -2.6621524620         2.3028252179
        0.2500000000       181.5961998958         2.9076152066         1.2612695229         0.9236314466        -1.9972792198         3.1694515973
        0.2550000000       227.9413397888         2.9582939196         1.2918974451         0.9159758142        -1.1994313290         3.9783268807
        0.2600000000       270.1331232484         3.0033347529         1.3199730405         0.9134239367        -0.4680707626         4.7147124194
        0.2650000000       307.4027668876         3.0424265293         1.3480486360         0.9210795691         0.2632898039         5.3651904119
        0.2700000000       339.0711744340         3.0752600802         1.3403916554         0.9159758142         0.0638278313         5.9179083925
        0.2750000000       364.5613106542         3.1015129239         1.3199730405         0.9185276916        -0.4680707626         6.3627951963
        0.2800000000       383.4087156069         3.1208638995         1.3327346748         0.9108720593        -0.1356341414         6.6917444682
        0.2850000000       395.2699676441         3.1330293786         1.3301823480         0.9108720593        -0.2021214656         6.8987623696
        0.2900000000       399.9289409523         3.1378070473         1.3352870017         0.9236314466        -0.0691468172         6.9800767936
        0.2950000000       397.3007436169         3.1351118956         1.3429439823         0.9210795691         0.1303151555         6.9342060967
        0.3000000000       387.4332644515         3.1249922774         1.3352870017         0.9159758142        -0.0691468172         6.7619860964
        0.3050000000       370.5063004076         3.1076207138         1.3403916554         0.9185276916         0.0638278313         6.4665548415
        0.3100000000       346.8282804658         3.0832624837         1.3429439823         0.9185276916         0.1303151555         6.0532954332
        0.3150000000       316.8306457000         3.0522325293         1.3557056165         0.9236314466         0.4627517766         5.5297379387
        0.3200000000       281.0599879195         3.0148555771         1.3403916554         0.9185276916         0.0638278313         4.9054221848
        0.3250000000       240.1680901304         2.9714443311         1.3939905194         0.9287352015         1.4600616400         4.1917239310
        0.3300000000       194.9000502901         2.9223060464         1.4297230954         0.9312870789         2.3908841792         3.4016475899
        0.3350000000       146.0807047566         2.8677799670         1.4833219594         0.9491502211         3.7871179880         2.5495892716
        0.3400000000        94.5995988095         2.8082991542         1.4986359205         0.9517020986         4.1860419333         1.6510744703
        0.3450000000        41.3947781002         2.7444626450         1.4858742862         0.9721171183         3.8536053122         0.7224751710
        0.3500000000       -12.5643036312         2.3587831160         1.4731126519         0.9874283830         3.5211686910        -0.2192884666
        0.3550000000       -66.2944491312         2.2111979075         1.4654556714         1.0052915252         3.3217067184        -1.1570564131
        0.3600000000      -118.8166326308         2.1419731242         1.4475893834         1.0129471576         2.8562954488        -2.0737414455
        0.3650000000      -169.1738388341         2.0798733904         1.4348277491         1.0206027900         2.5238588276        -2.9526404959
        0.3700000000      -216.4485008507         2.0246227265         1.4246184417         1.0359140547         2.2579095307        -3.7777390009
        0.3750000000      -259.7792193321         1.9759766611         1.3888858657         1.0282584224         1.3270869916        -4.5340027056
        0.3800000000      -298.3764581697         1.9338164115         1.3710195777         1.0359140547         0.8616757220        -5.2076516055
        0.3850000000      -331.5369307619         1.8981879753         1.3582579434         1.0435696871         0.5292391008        -5.7864110338
        0.3900000000      -358.6564147141         1.8692890622         1.3352870017         1.0410178097        -0.0691468172        -6.2597353202
        0.3950000000      -379.2407614736         1.8474155020         1.3250776943         1.0359140547        -0.3350961141        -6.6189999455
        0.4000000000      -392.9149002915         1.8328847136         1.3352870017         1.0435696871        -0.0691468172        -6.8576586902
        0.4050000000      -399.4296724478         1.8259562638         1.3352870017         1.0410178097        -0.0691468172        -6.9713629144
        0.4100000000      -398.6663712136         1.8267683054         1.3378393285         1.0435696871        -0.0026594930        -6.9580407947
        0.4150000000      -390.6389048255         1.8353041553         1.3327346748         1.0410178097        -0.1356341414        -6.8179350756
        0.4200000000      -375.4935430616         1.8513963170         1.3327346748         1.0486734420        -0.1356341414        -6.5535986464
        0.4250000000      -353.5062520355         1.8747670743         1.3276300211         1.0384659322        -0.2686087899        -6.1698480244
        0.4300000000      -325.0776657732         1.9050967505         1.3123160600         1.0333621773        -0.6675327352        -5.6736755924
        0.4350000000      -290.7257861948         1.9421041907         1.2561648691         1.0384659322        -2.1302538682        -5.0741221895
        0.4400000000      -251.0765445163         1.9856201224         1.2153276394         1.0308102998        -3.1940510559        -4.3821123763
        0.4450000000      -206.8523960553         2.0356335722         1.1770427366         1.0129471576        -4.1913609193        -3.6102553768
        0.4500000000      -158.8591562539         2.0922947230         1.1770427366         0.9899802605        -4.1913609193        -2.7726153236
        0.4550000000      -107.9713177842         2.1558642072         1.2000136783         0.9823246281        -3.5929750012        -1.8844549931
        0.4600000000       -55.1161162739         2.2266079652         1.2000136783         0.9644614859        -3.5929750012        -0.9619576999
        0.4650000000        -1.2566349944         2.4835443993         1.2127753126         0.9542539761        -3.2605383801        -0.0219324181
        0.4700000000        52.6257436369         2.7581471017         1.2178799663         0.9491502211        -3.1275637316         0.9184924978
        0.4750000000       105.5492199861         2.8211321004         1.2280892737         0.9338389564        -2.8616144347         1.8421814117
        0.4800000000       156.5494667349         2.8796188383         1.2510602154         0.9185276916        -2.2632285167         2.7323036368
        0.4850000000       204.6972000457         2.9330488830         1.3046590794         0.9057683043        -0.8669947079         3.5726401104
        0.4900000000       249.1151121952         2.9810146931         1.3021067526         0.9032164269        -0.9334820321         4.3478789243
        0.4950000000       288.9938571413         3.0231881909         1.3378393285         0.9134239367        -0.0026594930         5.0438943252
        0.5000000000       323.6067977500         3.0592630874         1.3429439823         0.9083201818         0.1303151555         5.6480041026
        0.5050000000       352.3232459692         3.0889236640         1.3276300211         0.9032164269        -0.2686087899         6.1492006735
        0.5100000000       374.6199546993         3.1118446381         1.3276300211         0.9032164269        -0.2686087899         6.5383516532
        0.5150000000       390.0906519637         3.1277178186         1.3352870017         0.9032164269        -0.0691468172         6.8083662580
        0.5200000000       398.4534436573         3.1362939584         1.3403916554         0.9032164269         0.0638278313         6.9543245077
        0.5250000000       399.5559499848         3.1374245522         1.3352870017         0.9083201818        -0.0691468172         6.9735668732
        0.5300000000       393.3780819981         3.1310892515         1.3352870017         0.9083201818        -0.0691468172         6.8657427360
        0.5350000000       380.0324076403         3.1173997445         1.3378393285         0.9108720593        -0.0026594930         6.6328167776
        0.5400000000       359.7621006266         3.0965788182         1.3327346748         0.9032164269        -0.1356341414         6.2790331798
        0.5450000000       332.9365095363         3.0689215620         1.3403916554         0.9032164269         0.0638278313         5.8108382915
        0.5500000000       300.0444278522         3.0347518735         1.3863335388         0.9134239367         1.2605996673         5.2367631683
        0.5550000000       261.6851875743         2.9943897350         1.4169614611         0.9159758142         2.0584475581         4.5672681269
        0.5600000000       218.5577386937         2.9481424084         1.4552463639         0.9236314466         3.0557574215         3.8145521459
        0.5650000000       171.4479135101         2.8963263294         1.4475893834         0.9312870789         2.8562954488         2.9923305864
        0.5700000000       121.2141078531         2.8393177969         1.4858742862         0.9414945888         3.8536053122         2.1155852819
        0.5750000000        68.7716401118         2.7776219581         1.4935312668         0.9465983437         4.0530672849         1.2002915519
        0.5800000000        15.0760730680         2.6637486204         1.4884266131         0.9695652408         3.9200926364         0.2631271133
        0.5850000000       -38.8941975690         2.2494330858         1.4782173056         0.9823246281         3.6541433395        -0.6788318075
        0.5900000000       -92.1557706706         2.1764853644         1.4680079982         1.0001877703         3.3881940426        -1.6084216229
        0.5950000000      -143.7381584024         2.1107715718         1.4501417102         1.0078434027         2.9227827730        -2.5087041249
        0.6000000000      -192.7014696407         2.0520520883         1.4322754222         1.0180509125         2.4573715034        -3.3632751187
        0.6050000000      -238.1535358833         2.0000512517         1.4169614611         1.0231546675         2.0584475581        -4.1565633264
        0.6100000000      -279.2661675974         1.9545775739         1.3914381925         1.0282584224         1.3935743158        -4.8741141140
        0.6150000000      -315.2902447962         1.9155912765         1.3761242314         1.0359140547         0.9946503704        -5.5028528711
        0.6200000000      -345.5693668771         1.8832169511         1.3557056165         1.0461215646         0.4627517766        -6.0313232460
        0.6250000000      -369.5518130045         1.8577088023         1.3378393285         1.0384659322        -0.0026594930        -6.4498958936
        0.6300000000      -386.8005951050         1.8393834173         1.3301823480         1.0410178097        -0.2021214656        -6.7509439333
        0.6350000000      -397.0014202987         1.8285393040         1.3429439823         1.0461215646         0.1303151555        -6.9289819193
        0.6400000000      -399.9684176815         1.8253830687         1.3454963091         1.0461215646         0.1968024797        -6.9807657925
        0.6450000000      -395.6475251088         1.8299791799         1.3429439823         1.0461215646         0.1303151555        -6.9053519905
        0.6500000000      -384.1174742708         1.8422344140         1.3378393285         1.0461215646        -0.0026594930        -6.7041146405
        0.6550000000      -365.5883561096         1.8619203647         1.3301823480         1.0384659322        -0.2021214656        -6.3807205211
        0.6600000000      -340.3977927179         1.8887291158         1.3225253674         1.0333621773        -0.4015834383        -5.9410622494
        0.6650000000      -309.0047854711         1.9223497133         1.2970020988         1.0410178097        -1.0664566806        -5.3931509109
