% f=1.20Hz  n_cycles=5  N_total=833  dt=0.005000
% Amp=1.5000V  K_lin=5.741200
Time[s]              Vcmd[V]              Vc[V]                Vg[V]                Pot[V]               Omega[rad/s]         Omega_target[rad/s] 
        0.0000000000         0.0000000000         2.5000000000         1.3429439823         1.7861660277         0.1542505922         0.0000000000
        0.0050000000         0.0565352740         2.7208332509         1.3352870017         1.7785103953        -0.0452113805         0.3245803151
        0.0100000000         0.1129902083         2.7398678810         1.3378393285         1.7785103953         0.0212759438         0.6486993838
        0.0150000000         0.1692845773         2.7587872235         1.3352870017         1.7759585179        -0.0452113805         0.9718966153
        0.0200000000         0.2253383837         2.7775656269         1.3301823480         1.7708547629        -0.1781860289         1.2937127284
        0.0250000000         0.2810719719         2.7961778692         1.3301823480         1.7734066404        -0.1781860289         1.6136904049
        0.0300000000         0.3364061414         2.8145991825         1.3352870017         1.7734066404        -0.0452113805         1.9313749391
        0.0350000000         0.3912622594         2.8328052756         1.3301823480         1.7708547629        -0.1781860289         2.2463148839
        0.0400000000         0.4455623724         2.8507723555         1.3454963091         1.7785103953         0.2207379164         2.5580626922
        0.0450000000         0.4992293168         2.8684771473         1.3454963091         1.7785103953         0.2207379164         2.8661753535
        0.0500000000         0.5521868290         2.8858969127         1.3378393285         1.7759585179         0.0212759438         3.1702150228
        0.0550000000         0.6043596536         2.9030094675         1.3327346748         1.7734066404        -0.1116987047         3.4697496431
        0.0600000000         0.6556736500         2.9197931979         1.3250776943         1.7734066404        -0.3111606774         3.7643535592
        0.0650000000         0.7060558982         2.9362270752         1.3301823480         1.7708547629        -0.1781860289         4.0536081230
        0.0700000000         0.7554348025         2.9522906697         1.3454963091         1.7836141502         0.2207379164         4.3371022878
        0.0750000000         0.8037401925         2.9679641639         1.3301823480         1.7734066404        -0.1781860289         4.6144331930
        0.0800000000         0.8509034237         2.9832283640         1.3378393285         1.7785103953         0.0212759438         4.8852067361
        0.0850000000         0.8968574746         2.9980647113         1.3378393285         1.7810622728         0.0212759438         5.1490381331
        0.0900000000         0.9415370419         3.0124552920         1.3327346748         1.7708547629        -0.1116987047         5.4055524652
        0.0950000000         0.9848786336         3.0263828468         1.3378393285         1.7785103953         0.0212759438         5.6543852114
        0.1000000000         1.0268206589         3.0398307793         1.3454963091         1.7861660277         0.2207379164         5.8951827668
        0.1050000000         1.0673035158         3.0527831642         1.3352870017         1.7734066404        -0.0452113805         6.1276029450
        0.1100000000         1.1062696760         3.0652247542         1.3429439823         1.7810622728         0.1542505922         6.3513154641
        0.1150000000         1.1436637665         3.0771409868         1.3327346748         1.7759585179        -0.1116987047         6.5660024163
        0.1200000000         1.1794326482         3.0885179903         1.3506009628         1.7861660277         0.3537125649         6.7713587199
        0.1250000000         1.2135254916         3.0993425897         1.3557056165         1.7836141502         0.4866872133         6.9670925522
        0.1300000000         1.2458938488         3.1096023109         1.3735719045         1.7861660277         0.9520984829         7.1529257647
        0.1350000000         1.2764917227         3.1192853862         1.3812288851         1.7938216601         1.1515604556         7.3285942783
        0.1400000000         1.3052756320         3.1283807580         1.4220661148         1.7963735375         2.2153576432         7.4938484585
        0.1450000000         1.3322046732         3.1368780826         1.4935312668         1.8091329248         4.0770027216         7.6484534699
        0.1500000000         1.3572405787         3.1447677334         1.5241591891         1.8295479445         4.8748506123         7.7921896104
        0.1550000000         1.3803477710         3.1520408044         1.4935312668         1.8397554543         4.0770027216         7.9248526231
        0.1600000000         1.4014934137         3.1586891127         1.4782173056         1.8499629642         3.6780787762         8.0462539866
        0.1650000000         1.4206474575         3.1647052008         1.4807696325         1.8652742289         3.7445661004         8.1562211830
        0.1700000000         1.4377826835         3.1700823389         1.4986359205         1.8856892486         4.2099773700         8.2545979427
        0.1750000000         1.4528747417         3.1748145267         1.5037405742         1.8984486359         4.3429520185         8.3412444670
        0.1800000000         1.4659021854         3.1788964952         1.5037405742         1.9163117781         4.3429520185         8.4160376265
        0.1850000000         1.4768465018         3.1823237080         1.5062929011         1.9341749203         4.4094393427         8.4788711361
        0.1900000000         1.4856921385         3.1850923624         1.5165022085         1.9596936949         4.6753886396         8.5296557058
        0.1950000000         1.4924265255         3.1871993906         1.5088452279         1.9673493273         4.4759266669         8.5683191680
        0.2000000000         1.4970400926         3.1886424603         1.5062929011         1.9801087146         4.4094393427         8.5948065799
        0.2050000000         1.4995262839         3.1894199754         1.5292638428         2.0056274892         5.0078252608         8.6090803013
        0.2100000000         1.4998815663         3.1895310762         1.5292638428         2.0234906314         5.0078252608         8.6111200485
        0.2150000000         1.4981054349         3.1889756401         1.5216068622         2.0439056511         4.8083632881         8.6009229229
        0.2200000000         1.4942004137         3.1877542810         1.5292638428         2.0617687933         5.0078252608         8.5785034152
        0.2250000000         1.4881720520         3.1858683495         1.5394731502         2.0745281806         5.2737745577         8.5438933848
        0.2300000000         1.4800289163         3.1833199326         1.5292638428         2.0949432002         5.0078252608         8.4971420143
        0.2350000000         1.4697825786         3.1801118530         1.5292638428         2.1153582199         5.0078252608         8.4383157401
        0.2400000000         1.4574475994         3.1762476686         1.5445778039         2.1408769945         5.4067492061         8.3674981575
        0.2450000000         1.4430415074         3.1717316712         1.5573394382         2.1689476465         5.7391858272         8.2847899022
        0.2500000000         1.4265847744         3.1665688859         1.5471301308         2.1893626662         5.4732365303         8.1903085070
        0.2550000000         1.4081007865         3.1607650694         1.5420254771         2.2046739310         5.3402618819         8.0841882353
        0.2600000000         1.3876158103         3.1543267085         1.5522347845         2.2199851957         5.6062111788         7.9665798898
        0.2650000000         1.3651589560         3.1472610182         1.5496824576         2.2429520929         5.5397238546         7.8376505983
        0.2700000000         1.3407621362         3.1395759401         1.5445778039         2.2735746224         5.4067492061         7.6975835765
        0.2750000000         1.3144600201         3.1312801394         1.5471301308         2.2914377646         5.4732365303         7.5465778672
        0.2800000000         1.2862899843         3.1223830028         1.5752057262         2.3220602941         6.2045970968         7.3848480578
        0.2850000000         1.2562920601         3.1128946352         1.5547871113         2.3348196814         5.6726985030         7.2126239752
        0.2900000000         1.2245088761         3.1028258567         1.5522347845         2.3552347011         5.6062111788         7.0301503593
        0.2950000000         1.1909855980         3.0921881988         1.5573394382         2.3782015982         5.7391858272         6.8376865151
        0.3000000000         1.1557698642         3.0809939006         1.5547871113         2.4062722502         5.6726985030         6.6355059441
        0.3050000000         1.1189117181         3.0692559040         1.5573394382         2.4266872699         5.7391858272         6.4238959562
        0.3100000000         1.0804635373         3.0569878491         1.5547871113         2.4445504121         5.6726985030         6.2031572605
        0.3150000000         1.0404799587         3.0442040688         1.5675487456         2.4726210642         6.0051351242         5.9736035390
        0.3200000000         0.9990178012         3.0309195826         1.5573394382         2.4955879613         5.7391858272         5.7355610000
        0.3250000000         0.9561359846         3.0171500909         1.5547871113         2.5160029810         5.6726985030         5.4893679149
        0.3300000000         0.9118954465         3.0029119670         1.5649964188         2.5466255105         5.9386477999         5.2353741377
        0.3350000000         0.8663590551         2.9882222503         1.5573394382         2.5619367752         5.7391858272         4.9739406073
        0.3400000000         0.8195915201         2.9730986374         1.5598917651         2.5849036724         5.8056731515         4.7054388352
        0.3450000000         0.7716593007         2.9575594731         1.5573394382         2.6002149371         5.7391858272         4.4302503770
        0.3500000000         0.7226305112         2.9416237406         1.5547871113         2.6282855892         5.6726985030         4.1487662906
        0.3550000000         0.6725748241         2.9253110509         1.5573394382         2.6487006088         5.7391858272         3.8613865803
        0.3600000000         0.6215633715         2.9086416310         1.5394731502         2.6665637511         5.2737745577         3.5685196284
        0.3650000000         0.5696686433         2.8916363113         1.5369208233         2.6844268933         5.2072872334         3.2705816148
        0.3700000000         0.5169643848         2.8743165124         1.5369208233         2.7073937904         5.2072872334         2.9679959258
        0.3750000000         0.4635254916         2.8567042300         1.5343684965         2.7354644424         5.1407999092         2.6611925522
        0.3800000000         0.4094279033         2.8388220195         1.5420254771         2.7558794621         5.3402618819         2.3506074783
        0.3850000000         0.3547484955         2.8206929790         1.5394731502         2.7711907269         5.2737745577         2.0366820626
        0.3900000000         0.2995649708         2.8023407309         1.5394731502         2.7967095015         5.2737745577         1.7198624102
        0.3950000000         0.2439557478         2.7837894026         1.5267115159         2.8222282761         4.9413379365         1.4005987392
        0.4000000000         0.1879998503         2.7650636058         1.5267115159         2.8375395408         4.9413379365         1.0793447408
        0.4050000000         0.1317767948         2.7461884135         1.5088452279         2.8554026830         4.4759266669         0.7565569345
        0.4100000000         0.0753664773         2.7271893370         1.5088452279         2.8656101929         4.4759266669         0.4326940193
        0.4150000000         0.0188490598         2.5000000000         1.4960835936         2.8834733351         4.1434900458         0.1082162223
        0.4200000000        -0.0376951432         2.5000000000         1.5062929011         2.9064402322         4.4094393427        -0.2164153559
        0.4250000000        -0.0941857793         2.2436324785         1.4909789399         2.9140958646         4.0105153974        -0.5407393961
        0.4300000000        -0.1505425723         2.2272763264         1.4782173056         2.9294071293         3.6780787762        -0.8642950160
        0.4350000000        -0.2066854360         2.2109374182         1.4501417102         2.9447183941         2.9467182097        -1.1866224253
        0.4400000000        -0.2625345885         2.1946392112         1.4271707685         2.9523740265         2.3483322917        -1.5072635793
        0.4450000000        -0.3180106649         2.1784052993         1.4016475000         2.9600296588         1.6834590494        -1.8257628292
        0.4500000000        -0.3730348307         2.1622593791         1.3761242314         2.9651334138         1.0185858072        -2.1416675703
        0.4550000000        -0.4275288937         2.1462252157         1.3582579434         2.9727890461         0.5531745376        -2.4545288845
        0.4600000000        -0.4814154147         2.1303266064         1.3301823480         2.9702371687        -0.1781860289        -2.7639021789
        0.4650000000        -0.5346178181         2.1145873438         1.3301823480         2.9702371687        -0.1781860289        -3.0693478171
        0.4700000000        -0.5870605003         2.0990311771         1.3403916554         2.9651334138         0.0877632680        -3.3704317441
        0.4750000000        -0.6386689373         2.0836817728         1.3454963091         2.9727890461         0.2207379164        -3.6667261031
        0.4800000000        -0.6893697909         2.0685626735         1.3352870017         2.9625815363        -0.0452113805        -3.9578098437
        0.4850000000        -0.7390910123         2.0536972570         1.3301823480         2.9625815363        -0.1781860289        -4.2432693199
        0.4900000000        -0.7877619449         2.0391086927         1.3352870017         2.9676852912        -0.0452113805        -4.5226988783
        0.4950000000        -0.8353134247         2.0248198986         1.3352870017         2.9676852912        -0.0452113805        -4.7957014341
        0.5000000000        -0.8816778784         2.0108534965         1.3454963091         2.9727890461         0.2207379164        -5.0618890357
        0.5050000000        -0.9267894196         1.9972317675         1.3403916554         2.9676852912         0.0877632680        -5.3208834160
        0.5100000000        -0.9705839424         1.9839766058         1.3403916554         2.9753409236         0.0877632680        -5.5723165298
        0.5150000000        -1.0129992122         1.9711094733         1.3352870017         2.9702371687        -0.0452113805        -5.8158310770
        0.5200000000        -1.0539749547         1.9586513531         1.3327346748         2.9625815363        -0.1116987047        -6.0510810099
        0.5250000000        -1.0934529411         1.9466227032         1.3454963091         2.9676852912         0.2207379164        -6.2777320256
        0.5300000000        -1.1313770711         1.9350434104         1.3352870017         2.9651334138        -0.0452113805        -6.4954620406
        0.5350000000        -1.1676934524         1.9239327440         1.3378393285         2.9676852912         0.0212759438        -6.7039616486
        0.5400000000        -1.2023504773         1.9133093107         1.3301823480         2.9625815363        -0.1781860289        -6.9029345603
        0.5450000000        -1.2352988964         1.9031910097         1.3327346748         2.9625815363        -0.1116987047        -7.0920980243
        0.5500000000        -1.2664918883         1.8935949881         1.3378393285         2.9753409236         0.0212759438        -7.2711832288
        0.5550000000        -1.2958851258         1.8845375985         1.3429439823         2.9727890461         0.1542505922        -7.4399356842
        0.5600000000        -1.3234368397         1.8760343569         1.3097637331         2.9600296588        -0.7100846227        -7.5981155838
        0.5650000000        -1.3491078773         1.8680999027         1.1489671412         2.9472702715        -4.8987860490        -7.7454981454
        0.5700000000        -1.3728617589         1.8607479596         1.1387578337         2.9345108842        -5.1647353459        -7.8818739304
        0.5750000000        -1.3946647288         1.8539912994         1.1489671412         2.9115439871        -4.8987860490        -8.0070491412
        0.5800000000        -1.4144858038         1.8478417070         1.1821473903         2.9038883547        -4.0344508341        -8.1208458970
        0.5850000000        -1.4322968171         1.8423099480         1.1846997172         2.8834733351        -3.9679635098        -8.2231024864
        0.5900000000        -1.4480724582         1.8374057388         1.1872520440         2.8707139478        -3.9014761856        -8.3136735973
        0.5950000000        -1.4617903092         1.8331377195         1.2000136783         2.8579545605        -3.5690395645        -8.3924305231
        0.6000000000        -1.4734308761         1.8295134291         1.1795950634         2.8451951732        -4.1009381583        -8.4592613458
        0.6050000000        -1.4829776171         1.8265392840         1.1489671412         2.8145726437        -4.8987860490        -8.5140710953
        0.6100000000        -1.4904169658         1.8242205598         1.1566241217         2.8094688888        -4.6993240763        -8.5567818839
        0.6150000000        -1.4957383504         1.8225613756         1.1591764486         2.7788463592        -4.6328367521        -8.5873330173
        0.6200000000        -1.4989342090         1.8215646822         1.1693857560         2.7711907269        -4.3668874552        -8.6056810805
        0.6250000000        -1.5000000000         1.8212322538         1.1489671412         2.7507757072        -4.8987860490        -8.6118000000
        0.6300000000        -1.4989342090         1.8215646822         1.1515194680         2.7380163199        -4.8322987248        -8.6056810805
        0.6350000000        -1.4957383504         1.8225613756         1.1540717949         2.7099456679        -4.7658114006        -8.5873330173
        0.6400000000        -1.4904169658         1.8242205598         1.1515194680         2.6920825256        -4.8322987248        -8.5567818839
        0.6450000000        -1.4829776171         1.8265392840         1.1438624875         2.6767712609        -5.0317606975        -8.5140710953
        0.6500000000        -1.4734308761         1.8295134291         1.1387578337         2.6538043638        -5.1647353459        -8.4592613458
        0.6550000000        -1.4617903092         1.8331377195         1.1362055069         2.6333893441        -5.2312226702        -8.3924305231
        0.6600000000        -1.4480724582         1.8374057388         1.1438624875         2.6180780793        -5.0317606975        -8.3136735973
        0.6650000000        -1.4322968171         1.8423099480         1.1208915457         2.5976630597        -5.6301466155        -8.2231024864
