% f=3.10Hz  n_cycles=5  N_total=322  dt=0.005000
% Amp=1.0000V  K_lin=7.165500
Time[s]              Vcmd[V]              Vc[V]                Vg[V]                Pot[V]               Omega[rad/s]         Omega_target[rad/s] 
        0.0000000000         0.0000000000         2.5000000000         1.3403916554         2.7941576240         0.0721387468         0.0000000000
        0.0050000000         0.0972354939         2.7750315022         1.3352870017         2.7890538691        -0.0608359017         0.6967409317
        0.0100000000         0.1935494681         2.8133782856         1.3429439823         2.7967095015         0.1386260710         1.3868787133
        0.0150000000         0.2880291360         2.8514941024         1.3378393285         2.7865019916         0.0056514226         2.0638727741
        0.0200000000         0.3797790955         2.8890011052         1.3352870017         2.7865019916        -0.0608359017         2.7213071090
        0.0250000000         0.4679298143         2.9255121766         1.3352870017         2.7865019916        -0.0608359017         3.3529510841
        0.0300000000         0.5516458706         2.9606349116         1.3403916554         2.7865019916         0.0721387468         3.9528184860
        0.0350000000         0.6301338712         2.9939763715         1.3327346748         2.7813982367        -0.1273232259         4.5152242540
        0.0400000000         0.7026499698         3.0251486176         1.3633625971         2.7839501142         0.6705246648         5.0348383586
        0.0450000000         0.7685069172         3.0537749841         1.4552463639         2.8043651338         3.0640683370         5.5067363153
        0.0500000000         0.8270805743         3.0794969841         1.3990951731         2.7992613789         1.6013472040         5.9264458550
        0.0550000000         0.8778158270         3.1019816687         1.3939905194         2.8120207662         1.4683725555         6.2899893081
        0.0600000000         0.9202318474         3.1209291826         1.4501417102         2.8222282761         2.9310936885         6.5939213023
        0.0650000000         0.9539266506         3.1360801857         1.4450370565         2.8349876633         2.7981190401         6.8353614146
        0.0700000000         0.9785809043         3.1472227621         1.4654556714         2.8528508056         3.3300176339         7.0120214699
        0.0750000000         0.9939609555         3.1541984114         1.4731126519         2.8554026830         3.5294796066         7.1222272263
        0.0800000000         0.9999210442         3.1569067393         1.4731126519         2.8732658252         3.5294796066         7.1649342422
        0.0850000000         0.9964046856         3.1553085215         1.4807696325         2.8834733351         3.7289415793         7.1397377750
        0.0900000000         0.9834452050         3.1494269215         1.4986359205         2.9064402322         4.1943528488         7.0468766164
        0.0950000000         0.9611654218         3.1393467699         1.4960835936         2.9140958646         4.1278655246         6.8872308298
        0.1000000000         0.9297764859         3.1252119606         1.4960835936         2.9319590068         4.1278655246         6.6623134096
        0.1050000000         0.8895758764         3.1072211528         1.4884266131         2.9421665166         3.9284035519         6.3742559422
        0.1100000000         0.8409445823         3.0856220796         1.4935312668         2.9625815363         4.0613782004         6.0257884045
        0.1150000000         0.7843434919         3.0607048377         1.5088452279         2.9855484334         4.4603021457         5.6202132914
        0.1200000000         0.7203090249         3.0327945599         1.5267115159         3.0034115756         4.9257134153         5.1613743178
        0.1250000000         0.6494480483         3.0022438601         1.5088452279         3.0110672080         4.4603021457         4.6536199903
        0.1300000000         0.5724321256         2.9694253959         1.4935312668         3.0314822277         4.0613782004         4.1017623959
        0.1350000000         0.4899911516         2.9347248253         1.5113975548         3.0544491248         4.5267894700         3.5110315971
        0.1400000000         0.4029064357         2.8985343572         1.5139498816         3.0697603896         4.5932767942         2.8870260651
        0.1450000000         0.3120032967         2.8612470209         1.5113975548         3.0774160220         4.5267894700         2.2356596224
        0.1500000000         0.2181432414         2.8232517100         1.4858742862         3.1003829191         3.8619162277         1.5631053962
        0.1550000000         0.1222157999         2.7849290043         1.4960835936         3.1131423064         4.1278655246         0.8757373145
        0.1600000000         0.0251300954         2.7466477294         1.4909789399         3.1386610810         3.9948908762         0.1800696989
        0.1650000000        -0.0721937719         2.2301055068         1.5062929011         3.1514204683         4.3938148215        -0.5173044724
        0.1700000000        -0.1688334447         2.1897141349         1.4884266131         3.1667317330         3.9284035519        -1.2097760481
        0.1750000000        -0.2638730500         2.1495147361         1.4322754222         3.1718354879         2.4656824189        -1.8907823395
        0.1800000000        -0.3564118787         2.1099022318         1.3786765582         3.1794911203         1.0694486102        -2.5538693169
        0.1850000000        -0.4455729224         2.0712801956         1.3403916554         3.1794911203         0.0721387468        -3.1927527753
        0.1900000000        -0.5305111843         2.0340567284         1.3480486360         3.1896986301         0.2716007195        -3.8013778911
        0.1950000000        -0.6104216880         1.9986396303         1.3301823480         3.1794911203        -0.1938105501        -4.3739766052
        0.2000000000        -0.6845471059         1.9654308755         1.3378393285         3.1794911203         0.0056514226        -4.9051222875
        0.2050000000        -0.7521849371         1.9348204365         1.3352870017         3.1743873654        -0.0608359017        -5.3897811665
        0.2100000000        -0.8126941644         1.9071795646         1.3403916554         3.1820429978         0.0721387468        -5.8233600352
        0.2150000000        -0.8655013303         1.8828536921         1.2587171960         3.1769392429        -2.0554556285        -6.2017497819
        0.2200000000        -0.9101059707         1.8621551874         1.2102229857         3.1565242232        -3.3187147888        -6.5213643329
        0.2250000000        -0.9460853588         1.8453562499         1.2561648691         3.1539723457        -2.1219429527        -6.7791746387
        0.2300000000        -0.9730985110         1.8326822763         1.2485078886         3.1539723457        -2.3214049254        -6.9727373804
        0.2350000000        -0.9908894182         1.8243060468         1.1923566977         3.1412129584        -3.7841260584        -7.1002181263
        0.2400000000        -0.9992894726         1.8203430667         1.2127753126         3.1259016937        -3.2522274645        -7.1604087162
        0.2450000000        -0.9982190653         1.8208483541         1.1949090246         3.1054866740        -3.7176387341        -7.1527387123
        0.2500000000        -0.9876883406         1.8258148806         1.1974613514         3.0927272867        -3.6511514099        -7.0772808045
        0.2550000000        -0.9677971003         1.8351737722         1.2000136783         3.0774160220        -3.5846640857        -6.9347501224
        0.2600000000        -0.9387338577         1.8487962539         1.1770427366         3.0621047572        -4.1830500037        -6.7264974570
        0.2650000000        -0.9007740506         1.8664972112         1.1821473903         3.0518972474        -4.0500753553        -6.4544964596
        0.2700000000        -0.8542774317         1.8880401358         1.1795950634         3.0314822277        -4.1165626795        -6.1213249368
        0.2750000000        -0.7996846585         1.9131431558         1.1693857560         3.0161709629        -4.3825119764        -5.7301404204
        0.2800000000        -0.7375131174         1.9414858057         1.1795950634         3.0008596982        -4.1165626795        -5.2846502424
        0.2850000000        -0.6683520202         1.9727161909         1.1668334292         2.9829965560        -4.4489993006        -4.7890764005
        0.2900000000        -0.5928568202         2.0064582227         1.1719380829         2.9702371687        -4.3160246522        -4.2481155449
        0.2950000000        -0.5117430001         2.0423186483         1.1744904097         2.9447183941        -4.2495373279        -3.6668944673
        0.3000000000        -0.4257792916         2.0798936603         1.1744904097         2.9294071293        -4.2495373279        -3.0509215137
        0.3050000000        -0.3357803894         2.1187749320         1.1744904097         2.9217514970        -4.2495373279        -2.4060343802
        0.3100000000        -0.2425992308         2.1585549882         1.1898043709         2.9089921097        -3.8506133826        -1.7383447883
        0.3150000000        -0.1471189118         2.1988318732         1.1821473903         2.8885770900        -4.0500753553        -1.0541805628
        0.3200000000        -0.0502443182         2.2392131202         1.1923566977         2.8758177027        -3.7841260584        -0.3600256619
        0.3250000000         0.0471064507         2.7552697006         1.2025660052         2.8605064379        -3.5181767615         0.3375412726
        0.3300000000         0.1440107826         2.7935918573         1.2102229857         2.8502989281        -3.3187147888         1.0319092624
        0.3350000000         0.2395502960         2.8318733419         1.2485078886         2.8477470506        -2.3214049254         1.7164976463
        0.3400000000         0.3328195445         2.8697424101         1.3021067526         2.8400914183        -0.9251711166         2.3848184463
        0.3450000000         0.4229345971         2.9068162786         1.3276300211         2.8324357859        -0.2602978743         3.0305378554
        0.3500000000         0.5090414158         2.9427047272         1.3480486360         2.8375395408         0.2716007195         3.6475362646
        0.3550000000         0.5903239494         2.9770144508         1.3429439823         2.8324357859         0.1386260710         4.2299662591
        0.3600000000         0.6660118674         3.0093541917         1.3327346748         2.8247801535        -0.1273232259         4.7723080361
        0.3650000000         0.7353878608         3.0393406401         1.3352870017         2.8324357859        -0.0608359017         5.2694217164
        0.3700000000         0.7977944395         3.0666050308         1.3378393285         2.8324357859         0.0056514226         5.7165960565
        0.3750000000         0.8526401644         3.0908002962         1.3914381925         2.8426432957         1.4018852313         6.1095930977
        0.3800000000         0.8994052516         3.1116085569         1.4577986908         2.8400914183         3.1305556612         6.4446883301
        0.3850000000         0.9376464993         3.1287486572         1.4195137880         2.8554026830         2.1332457978         6.7187059907
        0.3900000000         0.9670014878         3.1419833887         1.4246184417         2.8605064379         2.2662204463         6.9290491606
        0.3950000000         0.9871920140         3.1511260054         1.4756649788         2.8809214576         3.5959669308         7.0737243763
        0.4000000000         0.9980267284         3.1560456310         1.4577986908         2.8936808449         3.1305556612         7.1513605226
        0.4050000000         0.9994029484         3.1566711971         1.4756649788         2.8987845998         3.5959669308         7.1612218264
        0.4100000000         0.9913076311         3.1529936345         1.4884266131         2.9140958646         3.9284035519         7.1032148304
        0.4150000000         0.9738174975         3.1450661546         1.4731126519         2.9217514970         3.5294796066         6.9778892782
        0.4200000000         0.9470983050         3.1330026028         1.4833219594         2.9421665166         3.7954289035         6.7864329044
        0.4250000000         0.9114032766         3.1169740032         1.5088452279         2.9651334138         4.4603021457         6.5306601787
        0.4300000000         0.8670707012         3.0972035433         1.5113975548         2.9855484334         4.5267894700         6.2129951092
        0.4350000000         0.8145207271         3.0739603403         1.4960835936         2.9906521883         4.1278655246         5.8364482698
        0.4400000000         0.7542513807         3.0475523816         1.5165022085         3.0161709629         4.6597641184         5.4045882687
        0.4450000000         0.6868338465         3.0183190407         1.4782173056         3.0187228404         3.6624542550         4.9215079274
        0.4500000000         0.6129070537         2.9866235401         1.4986359205         3.0365859826         4.1943528488         4.3917854930
        0.4550000000         0.5331716207         2.9528456745         1.5037405742         3.0544491248         4.3273274973         3.8204412484
        0.4600000000         0.4483832161         2.9173750347         1.5088452279         3.0774160220         4.4603021457         3.2128899349
        0.4650000000         0.3593453960         2.8806048949         1.4884266131         3.0850716543         3.9284035519         2.5748894351
        0.4700000000         0.2669019893         2.8429268537         1.4884266131         3.1003829191         3.9284035519         1.9124862045
        0.4750000000         0.1719291003         2.8047262567         1.5062929011         3.1233498162         4.3938148215         1.2319579681
        0.4800000000         0.0753268055         2.7663783822         1.4986359205         3.1463167133         4.1943528488         0.5397542250
        0.4850000000        -0.0219893761         2.2509015917         1.4858742862         3.1514204683         3.8619162277        -0.1575648744
        0.4900000000        -0.1190971601         2.2105618007         1.4680079982         3.1743873654         3.3965049581        -0.8533907007
        0.4950000000        -0.2150762370         2.1702146958         1.4195137880         3.1820429978         2.1332457978        -1.5411287763
        0.5000000000        -0.3090169944         2.1302493416         1.3786765582         3.1769392429         1.0694486102        -2.2142612732
        0.5050000000        -0.4000291372         2.0910653176         1.3684672508         3.1948023851         0.8034993133        -2.8664087829
        0.5100000000        -0.4872501257         2.0530689461         1.3327346748         3.1896986301        -0.1273232259        -3.4913907759
        0.5150000000        -0.5698533495         2.0166688290         1.3352870017         3.1948023851        -0.0608359017        -4.0832841756
        0.5200000000        -0.6470559616         1.9822706794         1.3454963091         3.1973542625         0.2051133952        -4.6364794926
        0.5250000000        -0.7181262978         1.9502714720         1.3454963091         3.1948023851         0.2051133952        -5.1457339866
        0.5300000000        -0.7823908106         1.9210529877         1.3327346748         3.1922505076        -0.1273232259        -5.6062213532
        0.5350000000        -0.8392404527         1.8949748863         1.2944497720         3.1845948752        -1.1246330893        -6.0135774635
        0.5400000000        -0.8881364488         1.8723675048         1.2025660052         3.1769392429        -3.5181767615        -6.3639417240
        0.5450000000        -0.9286154021         1.8535246411         1.2561648691         3.1667317330        -2.1219429527        -6.6539936640
        0.5500000000        -0.9602936857         1.8386966342         1.2331939274         3.1565242232        -2.7203288707        -6.8809844047
        0.5550000000        -0.9828710781         1.8280840832         1.1974613514         3.1386610810        -3.6511514099        -7.0427627104
        0.5600000000        -0.9961336091         1.8218325529         1.1974613514         3.1310054486        -3.6511514099        -7.1377953763
        0.5650000000        -0.9999555871         1.8200285836         1.2000136783         3.1156941838        -3.5846640857        -7.1651817594
        0.5700000000        -0.9943007904         1.8226972578         1.1846997172         3.1054866740        -3.9835880310        -7.1246623136
        0.5750000000        -0.9792228106         1.8298014875         1.1949090246         3.0850716543        -3.7176387341        -7.0166210495
        0.5800000000        -0.9548645447         1.8412430673         1.1693857560         3.0697603896        -4.3825119764        -6.8420818954
        0.5850000000        -0.9214568408         1.8568654244         1.1719380829         3.0518972474        -4.3160246522        -6.6026989929
        0.5900000000        -0.8793163102         1.8764578842         1.1770427366         3.0391378601        -4.1830500037        -6.3007410207
        0.5950000000        -0.8288423269         1.8997611814         1.1642811023         3.0263784728        -4.5154866249        -5.9390696934
        0.6000000000        -0.7705132428         1.9264738919         1.1693857560         3.0161709629        -4.3825119764        -5.5211126411
        0.6050000000        -0.7048818539         1.9562594367         1.1821473903         2.9932040658        -4.0500753553        -5.0508309244
        0.6100000000        -0.6325701619         1.9887533176         1.1719380829         2.9804446785        -4.3160246522        -4.5326814952
        0.6150000000        -0.5542634787         2.0235702846         1.1744904097         2.9625815363        -4.2495373279        -3.9715749569
        0.6200000000        -0.4707039322         2.0603111852         1.1719380829         2.9447183941        -4.3160246522        -3.3728290259
        0.6250000000        -0.3826834324         2.0985693111         1.1693857560         2.9243033744        -4.3825119764        -2.7421181346
        0.6300000000        -0.2910361668         2.1379361201         1.1719380829         2.9064402322        -4.3160246522        -2.0854196534
        0.6350000000        -0.1966306946         2.1780062684         1.1821473903         2.9038883547        -4.0500753553        -1.4089572423
        0.6400000000        -0.1003617149         2.2183819382         1.1642811023         2.8809214576        -4.5154866249        -0.7191418678
        0.6450000000        -0.0031415875         2.5000000000         1.1898043709         2.8630583154        -3.8506133826        -0.0225110451
        0.6500000000         0.0941083133         2.7737948228         1.2102229857         2.8528508056        -3.3187147888         0.6743331191
        0.6550000000         0.1904663312         2.8121428994         1.2000136783         2.8324357859        -3.5846640857         1.3647864964
        0.6600000000         0.2850192625         2.8502720050         1.2740311571         2.8324357859        -1.6565316831         2.0423055252
        0.6650000000         0.3768710104         2.8878046494         1.3046590794         2.8349876633        -0.8586837924         2.7004692251
