% f=5.00Hz  n_cycles=5  N_total=200  dt=0.005000
% Amp=1.0000V  K_lin=8.382100
Time[s]              Vcmd[V]              Vc[V]                Vg[V]                Pot[V]               Omega[rad/s]         Omega_target[rad/s] 
        0.0000000000         0.0000000000         2.5000000000         1.3403916554         0.8930089170         0.0804496623         0.0000000000
        0.0050000000         0.1564344650         2.8139201652         1.3301823480         0.8802495297        -0.1854996346         1.3112493294
        0.0100000000         0.3090169944         2.8885667094         1.3352870017         0.8853532847        -0.0525249861         2.5902113486
        0.0150000000         0.4539904997         2.9615297926         1.3352870017         0.8930089170        -0.0525249861         3.8053937679
        0.0200000000         0.5877852523         3.0307851060         1.3327346748         0.8879051621        -0.1190123104         4.9268747632
        0.0250000000         0.7071067812         3.0942354410         1.3429439823         0.8930089170         0.1469369865         5.9270397506
        0.0300000000         0.8090169944         3.1497875664         1.3301823480         0.8802495297        -0.1854996346         6.7812613486
        0.0350000000         0.8910065242         3.1954558992         1.3327346748         0.8828014072        -0.1190123104         7.4685057864
        0.0400000000         0.9510565163         3.2294885441         1.4884266131         0.8930089170         3.9367144675         7.9718508252
        0.0450000000         0.9876883406         3.2505029189         1.4322754222         0.9057683043         2.4739933345         8.2789024397
        0.0500000000         1.0000000000         3.2576100503         1.4220661148         0.9108720593         2.2080440376         8.3821000000
        0.0550000000         0.9876883406         3.2505029189         1.4986359205         0.9261833240         4.2026637644         8.2789024397
        0.0600000000         0.9510565163         3.2294885441         1.4884266131         0.9440464662         3.9367144675         7.9718508252
        0.0650000000         0.8910065242         3.1954558992         1.4782173056         0.9619096084         3.6707651706         7.4685057864
        0.0700000000         0.8090169944         3.1497875664         1.5113975548         0.9721171183         4.5351003855         6.7812613486
        0.0750000000         0.7071067812         3.0942354410         1.4858742862         0.9823246281         3.8702271432         5.9270397506
        0.0800000000         0.5877852523         3.0307851060         1.5037405742         1.0103952802         4.3356384128         4.9268747632
        0.0850000000         0.4539904997         2.9615297926         1.5190545354         1.0282584224         4.7345623582         3.8053937679
        0.0900000000         0.3090169944         2.8885667094         1.4986359205         1.0359140547         4.2026637644         2.5902113486
        0.0950000000         0.1564344650         2.8139201652         1.4960835936         1.0537771970         4.1361764401         1.3112493294
        0.1000000000         0.0000000000         2.5000000000         1.5318161696         1.0767440941         5.0669989793         0.0000000000
        0.1050000000        -0.1564344650         2.1647092765         1.4858742862         1.0895034814         3.8702271432        -1.3112493294
        0.1100000000        -0.3090169944         2.0869253944         1.4654556714         1.0971591138         3.3383285494        -2.5902113486
        0.1150000000        -0.4539904997         2.0109417822         1.4220661148         1.1073666236         2.2080440376        -3.8053937679
        0.1200000000        -0.5877852523         1.9388651776         1.3888858657         1.1175741334         1.3437088226        -4.9268747632
        0.1250000000        -0.7071067812         1.8728724110         1.3506009628         1.1226778884         0.3463989592        -5.9270397506
        0.1300000000        -0.8090169944         1.8151302109         1.3123160600         1.1150222560        -0.6509109042        -6.7812613486
        0.1350000000        -0.8910065242         1.7676882989         1.3378393285         1.1201260109         0.0139623381        -7.4685057864
        0.1400000000        -0.9510565163         1.7323506234         1.3506009628         1.1303335207         0.3463989592        -7.9718508252
        0.1450000000        -0.9876883406         1.7105378395         1.2357462543         1.1175741334        -2.6455306310        -8.2789024397
        0.1500000000        -1.0000000000         1.7031619996         1.2025660052         1.1099185011        -3.5098658459        -8.3821000000
        0.1550000000        -0.9876883406         1.7105378395         1.2536125423         1.0971591138        -2.1801193614        -8.2789024397
        0.1600000000        -0.9510565163         1.7323506234         1.1846997172         1.0843997265        -3.9752771155        -7.9718508252
        0.1650000000        -0.8910065242         1.7676882989         1.1591764486         1.0690884617        -4.6401503578        -7.4685057864
        0.1700000000        -0.8090169944         1.8151302109         1.2178799663         1.0588809519        -3.1109419006        -6.7812613486
        0.1750000000        -0.7071067812         1.8728724110         1.1719380829         1.0435696871        -4.3077137366        -5.9270397506
        0.1800000000        -0.5877852523         1.9388651776         1.1693857560         1.0257065449        -4.3742010609        -4.9268747632
        0.1850000000        -0.4539904997         2.0109417822         1.1821473903         0.9950840154        -4.0417644397        -3.8053937679
        0.1900000000        -0.3090169944         2.0869253944         1.1566241217         0.9797727506        -4.7066376820        -2.5902113486
        0.1950000000        -0.1564344650         2.1647092765         1.1872520440         0.9644614859        -3.9087897913        -1.3112493294
        0.2000000000        -0.0000000000         2.5000000000         1.2000136783         0.9619096084        -3.5763531702        -0.0000000000
        0.2050000000         0.1564344650         2.8139201652         1.1898043709         0.9414945888        -3.8423024671         1.3112493294
        0.2100000000         0.3090169944         2.8885667094         1.2025660052         0.9210795691        -3.5098658459         2.5902113486
        0.2150000000         0.4539904997         2.9615297926         1.2459555617         0.9159758142        -2.3795813341         3.8053937679
        0.2200000000         0.5877852523         3.0307851060         1.2995544257         0.9185276916        -0.9833475253         4.9268747632
        0.2250000000         0.7071067812         3.0942354410         1.3301823480         0.9032164269        -0.1854996346         5.9270397506
        0.2300000000         0.8090169944         3.1497875664         1.3454963091         0.9108720593         0.2134243108         6.7812613486
        0.2350000000         0.8910065242         3.1954558992         1.3250776943         0.9032164269        -0.3184742830         7.4685057864
        0.2400000000         0.9510565163         3.2294885441         1.3250776943         0.9057683043        -0.3184742830         7.9718508252
        0.2450000000         0.9876883406         3.2505029189         1.3888858657         0.9083201818         1.3437088226         8.2789024397
        0.2500000000         1.0000000000         3.2576100503         1.4833219594         0.9185276916         3.8037398190         8.3821000000
        0.2550000000         0.9876883406         3.2505029189         1.4195137880         0.9338389564         2.1415567133         8.2789024397
        0.2600000000         0.9510565163         3.2294885441         1.4577986908         0.9491502211         3.1388665767         7.9718508252
        0.2650000000         0.8910065242         3.1954558992         1.5216068622         0.9568058535         4.8010496824         7.4685057864
        0.2700000000         0.8090169944         3.1497875664         1.4680079982         0.9644614859         3.4048158736         6.7812613486
        0.2750000000         0.7071067812         3.0942354410         1.4782173056         0.9899802605         3.6707651706         5.9270397506
        0.2800000000         0.5877852523         3.0307851060         1.5241591891         1.0052915252         4.8675370066         4.9268747632
        0.2850000000         0.4539904997         2.9615297926         1.4807696325         1.0206027900         3.7372524948         3.8053937679
        0.2900000000         0.3090169944         2.8885667094         1.5011882474         1.0359140547         4.2691510886         2.5902113486
        0.2950000000         0.1564344650         2.8139201652         1.4756649788         1.0461215646         3.6042778463         1.3112493294
        0.3000000000         0.0000000000         2.5000000000         1.4833219594         1.0690884617         3.8037398190         0.0000000000
        0.3050000000        -0.1564344650         2.1647092765         1.4858742862         1.0895034814         3.8702271432        -1.3112493294
        0.3100000000        -0.3090169944         2.0869253944         1.4756649788         1.1073666236         3.6042778463        -2.5902113486
        0.3150000000        -0.4539904997         2.0109417822         1.4246184417         1.1073666236         2.2745313618        -3.8053937679
        0.3200000000        -0.5877852523         1.9388651776         1.3863335388         1.1150222560         1.2772214984        -4.9268747632
        0.3250000000        -0.7071067812         1.8728724110         1.3378393285         1.1099185011         0.0139623381        -5.9270397506
        0.3300000000        -0.8090169944         1.8151302109         1.3225253674         1.1175741334        -0.3849616073        -6.7812613486
        0.3350000000        -0.8910065242         1.7676882989         1.3506009628         1.1201260109         0.3463989592        -7.4685057864
        0.3400000000        -0.9510565163         1.7323506234         1.3429439823         1.1201260109         0.1469369865        -7.9718508252
        0.3450000000        -0.9876883406         1.7105378395         1.1795950634         1.1124703785        -4.1082517640        -8.2789024397
        0.3500000000        -1.0000000000         1.7031619996         1.2306416006         1.0946072363        -2.7785052794        -8.3821000000
        0.3550000000        -0.9876883406         1.7105378395         1.2331939274         1.0792959716        -2.7120179552        -8.2789024397
        0.3600000000        -0.9510565163         1.7323506234         1.1591764486         1.0741922166        -4.6401503578        -7.9718508252
        0.3650000000        -0.8910065242         1.7676882989         1.1898043709         1.0665365843        -3.8423024671        -7.4685057864
        0.3700000000        -0.8090169944         1.8151302109         1.2000136783         1.0461215646        -3.5763531702        -6.7812613486
        0.3750000000        -0.7071067812         1.8728724110         1.1515194680         1.0206027900        -4.8396123305        -5.9270397506
        0.3800000000        -0.5877852523         1.9388651776         1.1821473903         1.0027396478        -4.0417644397        -4.9268747632
        0.3850000000        -0.4539904997         2.0109417822         1.1693857560         0.9899802605        -4.3742010609        -3.8053937679
        0.3900000000        -0.3090169944         2.0869253944         1.1642811023         0.9746689957        -4.5071757093        -2.5902113486
        0.3950000000        -0.1564344650         2.1647092765         1.1949090246         0.9619096084        -3.7093278186        -1.3112493294
        0.4000000000        -0.0000000000         2.5000000000         1.2000136783         0.9491502211        -3.5763531702        -0.0000000000
        0.4050000000         0.1564344650         2.8139201652         1.1898043709         0.9287352015        -3.8423024671         1.3112493294
        0.4100000000         0.3090169944         2.8885667094         1.2051183320         0.9134239367        -3.4433785217         2.5902113486
        0.4150000000         0.4539904997         2.9615297926         1.2587171960         0.9108720593        -2.0471447129         3.8053937679
        0.4200000000         0.5877852523         3.0307851060         1.3072114063         0.9108720593        -0.7838855526         4.9268747632
        0.4250000000         0.7071067812         3.0942354410         1.3531532897         0.9032164269         0.4128862834         5.9270397506
        0.4300000000         0.8090169944         3.1497875664         1.3429439823         0.9134239367         0.1469369865         6.7812613486
        0.4350000000         0.8910065242         3.1954558992         1.3276300211         0.9032164269        -0.2519869588         7.4685057864
        0.4400000000         0.9510565163         3.2294885441         1.3327346748         0.8981126720        -0.1190123104         7.9718508252
        0.4450000000         0.9876883406         3.2505029189         1.3403916554         0.9006645494         0.0804496623         8.2789024397
        0.4500000000         1.0000000000         3.2576100503         1.5062929011         0.9134239367         4.4021257370         8.3821000000
        0.4550000000         0.9876883406         3.2505029189         1.4450370565         0.9261833240         2.8064299556         8.2789024397
        0.4600000000         0.9510565163         3.2294885441         1.4297230954         0.9363908338         2.4075060102         7.9718508252
        0.4650000000         0.8910065242         3.1954558992         1.5088452279         0.9517020986         4.4686130613         7.4685057864
        0.4700000000         0.8090169944         3.1497875664         1.5011882474         0.9695652408         4.2691510886         6.7812613486
        0.4750000000         0.7071067812         3.0942354410         1.4629033445         0.9874283830         3.2718412252         5.9270397506
        0.4800000000         0.5877852523         3.0307851060         1.5113975548         1.0052915252         4.5351003855         4.9268747632
        0.4850000000         0.4539904997         2.9615297926         1.4986359205         1.0180509125         4.2026637644         3.8053937679
        0.4900000000         0.3090169944         2.8885667094         1.4858742862         1.0282584224         3.8702271432         2.5902113486
        0.4950000000         0.1564344650         2.8139201652         1.4960835936         1.0410178097         4.1361764401         1.3112493294
        0.5000000000         0.0000000000         2.5000000000         1.4833219594         1.0588809519         3.8037398190         0.0000000000
        0.5050000000        -0.1564344650         2.1647092765         1.4756649788         1.0767440941         3.6042778463        -1.3112493294
        0.5100000000        -0.3090169944         2.0869253944         1.4705603251         1.0895034814         3.4713031979        -2.5902113486
        0.5150000000        -0.4539904997         2.0109417822         1.4195137880         1.0971591138         2.1415567133        -3.8053937679
        0.5200000000        -0.5877852523         1.9388651776         1.3939905194         1.1048147461         1.4766834711        -4.9268747632
        0.5250000000        -0.7071067812         1.8728724110         1.3429439823         1.0997109912         0.1469369865        -5.9270397506
        0.5300000000        -0.8090169944         1.8151302109         1.3123160600         1.0997109912        -0.6509109042        -6.7812613486
        0.5350000000        -0.8910065242         1.7676882989         1.3429439823         1.1073666236         0.1469369865        -7.4685057864
        0.5400000000        -0.9510565163         1.7323506234         1.3352870017         1.1073666236        -0.0525249861        -7.9718508252
        0.5450000000        -0.9876883406         1.7105378395         1.1770427366         1.0971591138        -4.1747390882        -8.2789024397
        0.5500000000        -1.0000000000         1.7031619996         1.2331939274         1.0946072363        -2.7120179552        -8.3821000000
        0.5550000000        -0.9876883406         1.7105378395         1.2331939274         1.0716403392        -2.7120179552        -8.2789024397
        0.5600000000        -0.9510565163         1.7323506234         1.1693857560         1.0665365843        -4.3742010609        -7.9718508252
        0.5650000000        -0.8910065242         1.7676882989         1.1693857560         1.0563290744        -4.3742010609        -7.4685057864
        0.5700000000        -0.8090169944         1.8151302109         1.2025660052         1.0384659322        -3.5098658459        -6.7812613486
        0.5750000000        -0.7071067812         1.8728724110         1.1668334292         1.0257065449        -4.4406883851        -5.9270397506
        0.5800000000        -0.5877852523         1.9388651776         1.1719380829         1.0001877703        -4.3077137366        -4.9268747632
        0.5850000000        -0.4539904997         2.0109417822         1.1898043709         0.9899802605        -3.8423024671        -3.8053937679
        0.5900000000        -0.3090169944         2.0869253944         1.1515194680         0.9695652408        -4.8396123305        -2.5902113486
        0.5950000000        -0.1564344650         2.1647092765         1.1821473903         0.9542539761        -4.0417644397        -1.3112493294
        0.6000000000        -0.0000000000         2.5000000000         1.2000136783         0.9363908338        -3.5763531702        -0.0000000000
        0.6050000000         0.1564344650         2.8139201652         1.1821473903         0.9236314466        -4.0417644397         1.3112493294
        0.6100000000         0.3090169944         2.8885667094         1.2204322931         0.9159758142        -3.0444545763         2.5902113486
        0.6150000000         0.4539904997         2.9615297926         1.2689265034         0.9083201818        -1.7811954160         3.8053937679
        0.6200000000         0.5877852523         3.0307851060         1.3123160600         0.9032164269        -0.6509109042         4.9268747632
        0.6250000000         0.7071067812         3.0942354410         1.3506009628         0.8955607945         0.3463989592         5.9270397506
        0.6300000000         0.8090169944         3.1497875664         1.3429439823         0.8981126720         0.1469369865         6.7812613486
        0.6350000000         0.8910065242         3.1954558992         1.3250776943         0.8955607945        -0.3184742830         7.4685057864
        0.6400000000         0.9510565163         3.2294885441         1.3352870017         0.8904570396        -0.0525249861         7.9718508252
        0.6450000000         0.9876883406         3.2505029189         1.3429439823         0.9032164269         0.1469369865         8.2789024397
        0.6500000000         1.0000000000         3.2576100503         1.4833219594         0.9032164269         3.8037398190         8.3821000000
        0.6550000000         0.9876883406         3.2505029189         1.4629033445         0.9108720593         3.2718412252         8.2789024397
        0.6600000000         0.9510565163         3.2294885441         1.4246184417         0.9236314466         2.2745313618         7.9718508252
        0.6650000000         0.8910065242         3.1954558992         1.4935312668         0.9440464662         4.0696891159         7.4685057864
