% f=3.70Hz  n_cycles=5  N_total=270  dt=0.005000
% Amp=1.0000V  K_lin=7.165500
Time[s]              Vcmd[V]              Vc[V]                Vg[V]                Pot[V]               Omega[rad/s]         Omega_target[rad/s] 
        0.0000000000         0.0000000000         2.5000000000         1.3378393285         2.7762944818         0.0056514226         0.0000000000
        0.0050000000         0.1159773448         2.7824541200         1.3429439823         2.7813982367         0.1386260710         0.8310356642
        0.0100000000         0.2303894267         2.8281806726         1.3403916554         2.7788463592         0.0721387468         1.6508554369
        0.0150000000         0.3416921079         2.8733711487         1.3403916554         2.7762944818         0.0721387468         2.4483947991
        0.0200000000         0.4483832161         2.9173750347         1.3378393285         2.7762944818         0.0056514226         3.2128899349
        0.0250000000         0.5490228180         2.9595276200         1.3301823480         2.7686388494        -0.1938105501         3.9340230024
        0.0300000000         0.6422526532         2.9991609063         1.3454963091         2.7839501142         0.2051133952         4.6020613863
        0.0350000000         0.7268144655         3.0356167625         1.3429439823         2.7839501142         0.1386260710         5.2079890524
        0.0400000000         0.8015669849         3.0682622036         1.4220661148         2.7813982367         2.1997331220         5.7436282301
        0.0450000000         0.8655013303         3.0965064084         1.4450370565         2.7839501142         2.7981190401         6.2017497819
        0.0500000000         0.9177546257         3.1198187840         1.3990951731         2.7890538691         1.6013472040         6.5761707703
        0.0550000000         0.9576216460         3.1377470798         1.4220661148         2.8094688888         2.1997331220         6.8618379041
        0.0600000000         0.9845643345         3.1499343007         1.4552463639         2.8145726437         3.0640683370         7.0548957391
        0.0650000000         0.9982190653         3.1561330492         1.4501417102         2.8273320310         2.9310936885         7.1527387123
        0.0700000000         0.9984015501         3.1562159925         1.4731126519         2.8451951732         3.5294796066         7.1540463073
        0.0750000000         0.9851093262         3.1501814196         1.4833219594         2.8528508056         3.7954289035         7.0588008766
        0.0800000000         0.9585217890         3.1381533178         1.4705603251         2.8630583154         3.4629922823         6.8682878792
        0.0850000000         0.9189977716         3.1203759566         1.4884266131         2.8809214576         3.9284035519         6.5850785324
        0.0900000000         0.8670707012         3.0972035433         1.4960835936         2.8936808449         4.1278655246         6.2129951092
        0.0950000000         0.8034414001         3.0690859678         1.4909789399         2.9089921097         3.9948908762         5.7570593525
        0.1000000000         0.7289686274         3.0365519411         1.4884266131         2.9243033744         3.9284035519         5.2234246998
        0.1050000000         0.6446574886         3.0001908972         1.4960835936         2.9447183941         4.1278655246         4.6192932348
        0.1100000000         0.5516458706         2.9606349116         1.4858742862         2.9549259039         3.8619162277         3.9528184860
        0.1150000000         0.4511890844         2.9185416455         1.5011882474         2.9778928011         4.2608401731         3.2329953846
        0.1200000000         0.3446429232         2.8745790138         1.4884266131         2.9855484334         3.9284035519         2.4695388660
        0.1250000000         0.2334453639         2.8294119695         1.5062929011         3.0059634531         4.3938148215         1.6727527547
        0.1300000000         0.1190971601         2.7836915339         1.4705603251         3.0161709629         3.4629922823         0.8533907007
        0.1350000000         0.0031415875         2.5000000000         1.4858742862         3.0365859826         3.8619162277         0.0225110451
        0.1400000000        -0.1128563849         2.2131686853         1.4807696325         3.0518972474         3.7289415793        -0.8086724258
        0.1450000000        -0.2273312156         2.1650280643         1.4705603251         3.0646566347         3.4629922823        -1.6289418257
        0.1500000000        -0.3387379202         2.1175044900         1.4552463639         3.0850716543         3.0640683370        -2.4272265675
        0.1550000000        -0.4455729224         2.0712801956         1.4169614611         3.0927272867         2.0667584736        -3.1927527753
        0.1600000000        -0.5463943467         2.0270482313         1.3735719045         3.0978310416         0.9364739617        -3.9151886915
        0.1650000000        -0.6398414790         1.9855009369         1.3174207137         3.0927272867        -0.5262471713        -4.5847841174
        0.1700000000        -0.7246531302         1.9473164092         1.3276300211         3.0978310416        -0.2602978743        -5.1925020044
        0.1750000000        -0.7996846585         1.9131431558         1.3454963091         3.0978310416         0.2051133952        -5.7301404204
        0.1800000000        -0.8639234172         1.8835833580         1.3327346748         3.0876235318        -0.1273232259        -6.1904432459
        0.1850000000        -0.9165024219         1.8591754255         1.2025660052         3.0774160220        -3.5181767615        -6.5671981042
        0.1900000000        -0.9567120516         1.8403767705         1.2740311571         3.0799678994        -1.6565316831        -6.8553202054
        0.1950000000        -0.9840096257         1.8275479171         1.2459555617         3.0621047572        -2.3878922496        -7.0509209726
        0.2000000000        -0.9980267284         1.8209391380         1.2434032349         3.0570010023        -2.4543795738        -7.1513605226
        0.2050000000        -0.9985741811         1.8206807305         1.1872520440         3.0365859826        -3.9171007068        -7.1552832948
        0.2100000000        -0.9856445951         1.8267778087         1.2127753126         3.0289303502        -3.2522274645        -7.0626363465
        0.2150000000        -0.9594124719         1.8391100961         1.1846997172         3.0136190855        -3.9835880310        -6.8746700671
        0.2200000000        -0.9202318474         1.8574367415         1.2051183320         3.0034115756        -3.4516894372        -6.5939213023
        0.2250000000        -0.8686315144         1.8814057044         1.1719380829         2.9753409236        -4.3160246522        -6.2241791167
        0.2300000000        -0.8053078857         1.9105668625         1.1795950634         2.9727890461        -4.1165626795        -5.7704336551
        0.2350000000        -0.7311155947         1.9443877422         1.1846997172         2.9523740265        -3.9835880310        -5.2388087940
        0.2400000000        -0.6470559616         1.9822706794         1.1795950634         2.9319590068        -4.1165626795        -4.6364794926
        0.2450000000        -0.5542634787         2.0235702846         1.1821473903         2.9243033744        -4.0500753553        -3.9715749569
        0.2500000000        -0.4539904997         2.0676102662         1.1872520440         2.9140958646        -3.9171007068        -3.2530689259
        0.2550000000        -0.3475903370         2.1136989090         1.1923566977         2.8987845998        -3.7841260584        -2.4906585596
        0.2600000000        -0.2364989970         2.1611427636         1.1642811023         2.8758177027        -4.5154866249        -1.6946335632
        0.2650000000        -0.1222157999         2.2092583388         1.1898043709         2.8579545605        -3.8506133826        -0.8757373145
        0.2700000000        -0.0062831440         2.5000000000         1.2025660052         2.8528508056        -3.5181767615        -0.0450218681
        0.2750000000         0.1097343111         2.7799795104         1.1949090246         2.8324357859        -3.7176387341         0.7863012061
        0.2800000000         0.2242707609         2.8257169211         1.2280892737         2.8222282761        -2.8533035192         1.6070121376
        0.2850000000         0.3357803894         2.8709528338         1.2867927914         2.8273320310        -1.3240950620         2.4060343802
        0.2900000000         0.4427582310         2.9150377699         1.3072114063         2.8247801535        -0.7921964682         3.1725841045
        0.2950000000         0.5437604828         2.9573075277         1.3429439823         2.8145726437         0.1386260710         3.8963157394
        0.3000000000         0.6374239897         2.9970939700         1.3403916554         2.8094688888         0.0721387468         4.5674615985
        0.3050000000         0.7224846429         3.0337380597         1.3276300211         2.8120207662        -0.2602978743         5.1769637084
        0.3100000000         0.7977944395         3.0666050308         1.3276300211         2.8171245211        -0.2602978743         5.7165960565
        0.3150000000         0.8623369776         3.0951013265         1.3378393285         2.8094688888         0.0056514226         6.1790756127
        0.3200000000         0.9152411726         3.1186926307         1.3557056165         2.8145726437         0.4710626921         6.5581606224
        0.3250000000         0.9557930148         3.1369220091         1.4884266131         2.8324357859         3.9284035519         6.8487348475
        0.3300000000         0.9834452050         3.1494269215         1.4169614611         2.8324357859         2.0667584736         7.0468766164
        0.3350000000         0.9978245415         3.1559537390         1.4271707685         2.8400914183         2.3327077705         7.1499117518
        0.3400000000         0.9987369566         3.1563684489         1.4680079982         2.8502989281         3.3965049581         7.1564496626
        0.3450000000         0.9861701362         3.1506624977         1.4731126519         2.8656101929         3.5294796066         7.0664021111
        0.3500000000         0.9602936857         3.1389531687         1.4680079982         2.8834733351         3.3965049581         6.8809844047
        0.3550000000         0.9214568408         3.1214784538         1.4986359205         2.9064402322         4.1943528488         6.6026989929
        0.3600000000         0.8701837547         3.0985869523         1.4782173056         2.9064402322         3.6624542550         6.2353016941
        0.3650000000         0.8071664232         3.0707237957         1.4756649788         2.9166477420         3.5959669308         5.7837510058
        0.3700000000         0.7332553462         3.0384138920         1.5011882474         2.9447183941         4.2608401731         5.2541411834
        0.3750000000         0.6494480483         3.0022438601         1.4833219594         2.9549259039         3.7954289035         4.6536199903
        0.3800000000         0.5568756165         2.9628439194         1.4960835936         2.9753409236         4.1278655246         3.9902922299
        0.3850000000         0.4567874343         2.9208707580         1.4858742862         2.9881003109         3.8619162277         3.2731103607
        0.3900000000         0.3505343202         2.8769920943         1.5011882474         3.0008596982         4.2608401731         2.5117536713
        0.3950000000         0.2395502960         2.8318733419         1.4858742862         3.0263784728         3.8619162277         1.7164976463
        0.4000000000         0.1253332336         2.7861665191         1.4986359205         3.0442416150         4.1943528488         0.8980752851
        0.4050000000         0.0094246384         2.5000000000         1.4833219594         3.0570010023         3.7954289035         0.0675322467
        0.4100000000        -0.1066111543         2.2157754319         1.4807696325         3.0646566347         3.7289415793        -0.7639222260
        0.4150000000        -0.2212080928         2.1676205343         1.4731126519         3.0799678994         3.5294796066        -1.5850665889
        0.4200000000        -0.3328195445         2.1200463087         1.4373800759         3.0901754092         2.5986570674        -2.3848184463
        0.4250000000        -0.4399391699         2.0737341149         1.3939905194         3.1029347965         1.4683725555        -3.1523841216
        0.4300000000        -0.5411212521         2.0293766946         1.3454963091         3.1080385515         0.2051133952        -3.8774043321
        0.4350000000        -0.6350002094         1.9876667545         1.3199730405         3.0978310416        -0.4597598470        -4.5500940007
        0.4400000000        -0.7203090249         1.9492835389         1.3429439823         3.0978310416         0.1386260710        -5.1613743178
        0.4450000000        -0.7958963467         1.9148775726         1.3352870017         3.0927272867        -0.0608359017        -5.7029952721
        0.4500000000        -0.8607420270         1.8850539844         1.3327346748         3.0978310416        -0.1273232259        -6.1676469945
        0.4550000000        -0.9139708903         1.8603550780         1.2867927914         3.0901754092        -1.3240950620        -6.5490584143
        0.4600000000        -0.9548645447         1.8412430673         1.1974613514         3.0774160220        -3.6511514099        -6.8420818954
        0.4650000000        -0.9828710781         1.8280840832         1.2587171960         3.0672085121        -2.0554556285        -7.0427627104
        0.4700000000        -0.9976125064         1.8211346434         1.2331939274         3.0621047572        -2.7203288707        -7.1483924143
        0.4750000000        -0.9988898750         1.8205317073         1.2102229857         3.0544491248        -3.3187147888        -7.1575453990
        0.4800000000        -0.9866859442         1.8262872067         1.1949090246         3.0391378601        -3.7176387341        -7.0700981332
        0.4850000000        -0.9611654218         1.8382875637         1.1974613514         3.0212747179        -3.6511514099        -6.8872308298
        0.4900000000        -0.9226727399         1.8562982428         1.2000136783         3.0187228404        -3.5846640857        -6.6114115175
        0.4950000000        -0.8717274065         1.8799729074         1.2000136783         3.0034115756        -3.5846640857        -6.2463627316
        0.5000000000        -0.8090169944         1.9088663533         1.1693857560         2.9829965560        -4.3825119764        -5.7970112732
        0.5050000000        -0.7353878608         1.9424501273         1.1770427366         2.9625815363        -4.1830500037        -5.2694217164
        0.5100000000        -0.6518337253         1.9801296406         1.1898043709         2.9498221490        -3.8506133826        -4.6707145586
        0.5150000000        -0.5594822581         2.0212616441         1.1719380829         2.9345108842        -4.3160246522        -4.0089701204
        0.5200000000        -0.4595798606         2.0651711065         1.1846997172         2.9217514970        -3.9835880310        -3.2931194913
        0.5250000000        -0.3534748438         2.1111667788         1.1821473903         2.9089921097        -4.0500753553        -2.5328239931
        0.5300000000        -0.2425992308         2.1585549882         1.1821473903         2.8911289674        -4.0500753553        -1.7383447883
        0.5350000000        -0.1284494302         2.2066514400         1.1974613514         2.8758177027        -3.6511514099        -0.9204043921
        0.5400000000        -0.0125660399         2.5000000000         1.2076706589         2.8707139478        -3.3852021130        -0.0900419588
        0.5450000000         0.1034869453         2.7775052722         1.2025660052         2.8554026830        -3.5181767615         0.7415357062
        0.5500000000         0.2181432414         2.8232517100         1.2229846200         2.8451951732        -2.9862781676         1.5631053962
        0.5550000000         0.3298554149         2.8685311596         1.2765834840         2.8298839084        -1.5900443589         2.3635789752
        0.5600000000         0.4371157667         2.9126952026         1.3046590794         2.8298839084        -0.8586837924         3.1321530259
        0.5650000000         0.5384766808         2.9550801774         1.3352870017         2.8273320310        -0.0608359017         3.8584546565
        0.5700000000         0.6325701619         2.9950178464         1.3352870017         2.8247801535        -0.0608359017         4.5326814952
        0.5750000000         0.7181262978         3.0318483108         1.3276300211         2.8171245211        -0.2602978743         5.1457339866
        0.5800000000         0.7939903986         3.0649350732         1.3301823480         2.8222282761        -0.1938105501         5.6893382015
        0.5850000000         0.8591385813         3.0936818942         1.3403916554         2.8171245211         0.0721387468         6.1561575041
        0.5900000000         0.9126915874         3.1175507878         1.3403916554         2.8196763986         0.0721387468         6.5398915695
        0.5950000000         0.9539266506         3.1360801857         1.4731126519         2.8298839084         3.5294796066         6.8353614146
        0.6000000000         0.9822872507         3.1489020461         1.4144091342         2.8349876633         2.0002711494         7.0385792951
        0.6050000000         0.9973906252         3.1557565395         1.4246184417         2.8477470506         2.2662204463         7.1468025251
        0.6100000000         0.9990329347         3.1565029909         1.4654556714         2.8707139478         3.3300176339         7.1585704934
        0.6150000000         0.9871920140         3.1511260054         1.4884266131         2.8758177027         3.9284035519         7.0737243763
        0.6200000000         0.9620276716         3.1397361471         1.4629033445         2.8911289674         3.2635303097         6.8934092808
        0.6250000000         0.9238795325         3.1225651005         1.4884266131         2.8962327224         3.9284035519         6.6200587902
        0.6300000000         0.8732624548         3.0999558155         1.4858742862         2.9166477420         3.8619162277         6.2573621199
        0.6350000000         0.8108595808         3.0723486160         1.4884266131         2.9396146392         3.9284035519         5.8102143265
        0.6400000000         0.7375131174         3.0402645537         1.4960835936         2.9523740265         4.1278655246         5.2846502424
        0.6450000000         0.6542129689         3.0042873793         1.4960835936         2.9574777814         4.1278655246         4.6877630289
        0.6500000000         0.5620833779         2.9650454062         1.4858742862         2.9778928011         3.8619162277         4.0276084440
        0.6550000000         0.4623677510         2.9231943037         1.5037405742         2.9957559433         4.3273274973         3.3130961201
        0.6600000000         0.3564118787         2.8794015548         1.4858742862         3.0059634531         3.8619162277         2.5538693169
        0.6650000000         0.2456457712         2.8343330016         1.4807696325         3.0263784728         3.7289415793         1.7601747735
