% f=1.30Hz  n_cycles=5  N_total=769  dt=0.005000
% Amp=400.00deg/s
Time[s]              OmegaCmd[deg/s]      Vc[V]                Vg[V]                Pot[V]               Omega[rad/s]         Omega_target[rad/s] 
        0.0000000000         0.0000000000         2.4974092728         1.3454963091         2.1077025875         0.1968024797         0.0000000000
        0.0050000000        16.3317407914         2.6776028216         1.3352870017         2.1000469552        -0.0691468172         0.2850426494
        0.0100000000        32.6362446273         2.7337112596         1.3378393285         2.1000469552        -0.0026594930         0.5696099242
        0.0150000000        48.8863199760         2.7536034241         1.3378393285         2.1025988326        -0.0026594930         0.8532272428
        0.0200000000        65.0548660780         2.7731593968         1.3301823480         2.0923913228        -0.2021214656         1.1354216075
        0.0250000000        81.1149181426         2.7923548666         1.3429439823         2.1077025875         0.1303151555         1.4157223941
        0.0300000000        97.0396923182         2.8111677057         1.3403916554         2.1000469552         0.0638278313         1.6936621361
        0.0350000000       112.8026303601         2.8295778573         1.3327346748         2.0949432002        -0.1356341414         1.9687773047
        0.0400000000       128.3774439229         2.8475671994         1.3352870017         2.1025988326        -0.0691468172         2.2406090817
        0.0450000000       143.7381584024         2.8651193896         1.3301823480         2.0949432002        -0.2021214656         2.5087041249
        0.0500000000       158.8591562539         2.8822196932         1.3352870017         2.1000469552        -0.0691468172         2.7726153236
        0.0550000000       173.7152197159         2.8988548012         1.3301823480         2.0974950777        -0.2021214656         3.0319025449
        0.0600000000       188.2815728661         2.9150126405         1.3378393285         2.1000469552        -0.0026594930         3.2861333673
        0.0650000000       202.5339229413         2.9306821824         1.3352870017         2.1051507101        -0.0691468172         3.5348838023
        0.0700000000       216.4485008508         2.9458532534         1.3429439823         2.1077025875         0.1303151555         3.7777390009
        0.0750000000       230.0021008173         2.9605163525         1.3301823480         2.0974950777        -0.2021214656         4.0142939458
        0.0800000000       243.1721190778         2.9746624795         1.3378393285         2.1025988326        -0.0026594930         4.2441541270
        0.0850000000       255.9365915805         2.9882829777         1.3352870017         2.1000469552        -0.0691468172         4.4669361994
        0.0900000000       268.2742306147         3.0013693950         1.3454963091         2.1077025875         0.1968024797         4.6822686225
        0.0950000000       280.1644603135         3.0139133644         1.3378393285         2.1000469552        -0.0026594930         4.8897922795
        0.1000000000       291.5874509686         3.0259065088         1.3557056165         2.0949432002         0.4627517766         5.0891610769
        0.1050000000       302.5241521006         3.0373403687         1.3403916554         2.1025988326         0.0638278313         5.2800425210
        0.1100000000       312.9563242306         3.0482063563         1.3352870017         2.1000469552        -0.0691468172         5.4621182728
        0.1150000000       322.8665692986         3.0584957340         1.3378393285         2.1025988326        -0.0026594930         5.6350846789
        0.1200000000       332.2383596783         3.0681996181         1.3352870017         2.0949432002        -0.0691468172         5.7986532778
        0.1250000000       341.0560657416         3.0773090067         1.3403916554         2.1051507101         0.0638278313         5.9525512811
        0.1300000000       349.3049819240         3.0858148287         1.3403916554         2.1000469552         0.0638278313         6.0965220282
        0.1350000000       356.9713512495         3.0937080131         1.3557056165         2.1025988326         0.4627517766         6.2303254146
        0.1400000000       364.0423882740         3.1009795747         1.4322754222         2.1102544650         2.4573715034         6.3537382922
        0.1450000000       370.5063004076         3.1076207138         1.5165022085         2.1255657297         4.6514532029         6.4665548415
        0.1500000000       376.3523075817         3.1136229254         1.5216068622         2.1485326269         4.7844278514         6.5685869148
        0.1550000000       381.5706602270         3.1189781157         1.5292638428         2.1587401367         4.9838898240         6.6596643500
        0.1600000000       386.1526555333         3.1236787197         1.4960835936         2.1740514015         4.1195546091         6.7396352544
        0.1650000000       390.0906519637         3.1277178186         1.4782173056         2.1868107888         3.6541433395         6.8083662580
        0.1700000000       393.3780819981         3.1310892515         1.4756649788         2.1995701761         3.5876560153         6.8657427360
        0.1750000000       396.0094630866         3.1337877185         1.4986359205         2.2199851957         4.1860419333         6.9116689999
        0.1800000000       397.9804067925         3.1358088717         1.5113975548         2.2378483379         4.5184785544         6.9460684570
        0.1850000000       399.2876261113         3.1371493919         1.4960835936         2.2557114802         4.1195546091         6.9688837381
        0.1900000000       399.9289409523         3.1378070473         1.5037405742         2.2710227449         4.3190165818         6.9800767936
        0.1950000000       399.9032817748         3.1377807343         1.4858742862         2.2812302547         3.8536053122         6.9796289565
        0.2000000000       399.2106913713         3.1370704971         1.5190545354         2.3016452744         4.7179405271         6.9675409736
        0.2050000000       397.8523247966         3.1356775271         1.5165022085         2.3322678039         4.6514532029         6.9438330044
        0.2100000000       395.8304474411         3.1336041415         1.5062929011         2.3424753138         4.3855039060         6.9085445875
        0.2150000000       393.1484312530         3.1308537409         1.5190545354         2.3577865785         4.7179405271         6.8617345744
        0.2200000000       389.8107491146         3.1274307493         1.5241591891         2.3782015982         4.8509151756         6.8034810317
        0.2250000000       385.8229673831         3.1233405363         1.5190545354         2.3986166179         4.7179405271         6.7338811107
        0.2300000000       381.1917366069         3.1185893250         1.5165022085         2.4113760052         4.6514532029         6.6530508852
        0.2350000000       375.9247804345         3.1131840878         1.5369208233         2.4419985347         5.1833517967         6.5611251584
        0.2400000000       370.0308827338         3.1071324346         1.5241591891         2.4471022896         4.8509151756         6.4582572378
        0.2450000000       363.5198729424         3.1004424950         1.5318161696         2.4726210642         5.0503771483         6.3446186793
        0.2500000000       356.4026096753         3.0931228009         1.5343684965         2.5006917162         5.1168644725         6.2203990015
        0.2550000000       348.6909626154         3.0851821698         1.5318161696         2.5160029810         5.0503771483         6.0858053696
        0.2600000000       340.3977927179         3.0766295971         1.5445778039         2.5364180006         5.3828137694         5.9410622494
        0.2650000000       331.5369307619         3.0674741565         1.5420254771         2.5517292654         5.3163264452         5.7864110338
        0.2700000000       322.1231542844         3.0577249161         1.5318161696         2.5746961625         5.0503771483         5.6221096392
        0.2750000000       312.1721629353         3.0473908702         1.5369208233         2.5925593047         5.1833517967         5.4484320763
        0.2800000000       301.7005522944         3.0364808919         1.5420254771         2.6180780793         5.3163264452         5.2656679926
        0.2850000000       290.7257861948         3.0250037070         1.5318161696         2.6282855892         5.0503771483         5.0741221895
        0.2900000000       279.2661675974         3.0129678925         1.5420254771         2.6589081187         5.3163264452         4.8741141140
        0.2950000000       267.3408080671         3.0003818995         1.5369208233         2.6716675060         5.1833517967         4.6659773257
        0.3000000000       254.9695958995         2.9872541016         1.5292638428         2.6920825256         4.9838898240         4.4500589409
        0.3050000000       242.1731629524         2.9735928685         1.5318161696         2.7099456679         5.0503771483         4.2267190535
        0.3100000000       228.9728502378         2.9594066636         1.5216068622         2.7252569326         4.7844278514         3.9963301343
        0.3150000000       215.3906723307         2.9447041649         1.5471301308         2.7584313396         5.4493010936         3.7592764103
        0.3200000000       201.4492806543         2.9294944052         1.5241591891         2.7660869720         4.8509151756         3.5159532232
        0.3250000000       187.1719257042         2.9137869310         1.5267115159         2.7890538691         4.9174024998         3.2667663708
        0.3300000000       172.5824182724         2.8975919750         1.5241591891         2.8120207662         4.8509151756         3.0121314299
        0.3350000000       157.7050897372         2.8809206395         1.5190545354         2.8273320310         4.7179405271         2.7524730631
        0.3400000000       142.5647514853         2.8637850858         1.5165022085         2.8451951732         4.6514532029         2.4882243107
        0.3450000000       127.1866535330         2.8461987261         1.5267115159         2.8681620703         4.9174024998         2.2198258687
        0.3500000000       111.5964424157         2.8281764121         1.5165022085         2.8834733351         4.6514532029         1.9477253537
        0.3550000000        95.8201184168         2.8097346174         1.5165022085         2.9089921097         4.6514532029         1.6723765560
        0.3600000000        79.8839922058         2.7908916075         1.5062929011         2.9191996195         4.3855039060         1.3942386836
        0.3650000000        63.8146409594         2.7716675939         1.5165022085         2.9345108842         4.6514532029         1.1137755957
        0.3700000000        47.6388640379         2.7520848688         1.4960835936         2.9498221490         4.1195546091         0.8314550294
        0.3750000000        31.3836382911         2.7321679149         1.4909789399         2.9651334138         3.9865799606         0.5477478194
        0.3800000000        15.0760730680         2.6637486204         1.4884266131         2.9829965560         3.9200926364         0.2631271133
        0.3850000000        -1.2566349944         2.4835443993         1.4833219594         2.9983078207         3.7871179880        -0.0219324181
        0.3900000000       -17.5872473271         2.3033633012         1.4654556714         3.0059634531         3.3217067184        -0.3069553722
        0.3950000000       -33.8885288568         2.2565906777         1.4680079982         3.0314822277         3.3881940426        -0.5914664072
        0.4000000000       -50.1332934257         2.2335598250         1.4348277491         3.0314822277         2.5238588276        -0.8749910351
        0.4050000000       -66.2944491312         2.2111979075         1.4271707685         3.0467934924         2.3243968550        -1.1570564131
        0.4100000000       -82.3450435080         2.1895043027         1.3990951731         3.0467934924         1.5930362885        -1.4371921319
        0.4150000000       -98.2583084770         2.1684760311         1.3812288851         3.0570010023         1.1276250189        -1.7149310004
        0.4200000000      -114.0077049880         2.1481082176         1.3582579434         3.0544491248         0.5292391008        -1.9898098247
        0.4250000000      -129.5669672793         2.1283945427         1.3429439823         3.0621047572         0.1303151555        -2.2613701808
        0.4300000000      -144.9101466818         2.1093276749         1.3276300211         3.0621047572        -0.2686087899        -2.5291591791
        0.4350000000      -160.0116548949         2.0908996815         1.3276300211         3.0570010023        -0.2686087899        -2.7927302195
        0.4400000000      -174.8463066604         2.0731024094         1.3403916554         3.0621047572         0.0638278313        -3.0516437362
        0.4450000000      -189.3893617649         2.0559278347         1.3429439823         3.0595528797         0.1303151555        -3.3054679310
        0.4500000000      -203.6165663001         2.0393683752         1.3403916554         3.0723122670         0.0638278313        -3.5537794935
        0.4550000000      -217.5041931115         2.0234171636         1.3301823480         3.0544491248        -0.2021214656        -3.7961643067
        0.4600000000      -231.0290813689         2.0080682789         1.3403916554         3.0672085121         0.0638278313        -4.0322181377
        0.4650000000      -244.1686751926         1.9933169353         1.3276300211         3.0544491248        -0.2686087899        -4.2615473123
        0.4700000000      -256.9010612706         1.9791596261         1.3403916554         3.0672085121         0.0638278313        -4.4837693710
        0.4750000000      -269.2050054039         1.9655942245         1.3429439823         3.0672085121         0.1303151555        -4.6985137071
        0.4800000000      -281.0599879195         1.9526200412         1.3301823480         3.0544491248        -0.2021214656        -4.9054221848
        0.4850000000      -292.4462378919         1.9402378395         1.3454963091         3.0646566347         0.1968024797        -5.1041497363
        0.4900000000      -303.3447661155         1.9284498112         1.3378393285         3.0595528797        -0.0026594930        -5.2943649374
        0.4950000000      -313.7373967734         1.9172595155         1.3301823480         3.0544491248        -0.2021214656        -5.4757505603
        0.5000000000      -323.6067977500         1.9066717837         1.3352870017         3.0595528797        -0.0691468172        -5.6480041026
        0.5050000000      -332.9365095363         1.8966925933         1.3454963091         3.0672085121         0.1968024797        -5.8108382915
        0.5100000000      -341.7109726797         1.8873289172         1.3327346748         3.0595528797        -0.1356341414        -5.9639815635
        0.5150000000      -349.9155537334         1.8785885491         1.3378393285         3.0672085121        -0.0026594930        -6.1071785166
        0.5200000000      -357.5365696605         1.8704799135         1.3276300211         3.0544491248        -0.2686087899        -6.2401903369
        0.5250000000      -364.5613106542         1.8630118623         1.2382985811         3.0493453699        -2.5956651378        -6.3627951963
        0.5300000000      -370.9780613339         1.8561934639         1.0979206040         3.0314822277        -6.2524679703        -6.4747886229
        0.5350000000      -376.7761202835         1.8500337895         1.1438624875         3.0136190855        -5.0556961342        -6.5759838418
        0.5400000000      -381.9458178987         1.8445417022         1.1617287755         2.9983078207        -4.5902848646        -6.6662120866
        0.5450000000      -386.4785325127         1.8397256516         1.1846997172         2.9804446785        -3.9918989466        -6.7453228806
        0.5500000000      -390.3667047755         1.8355934801         1.2025660052         2.9651334138        -3.5264876770        -6.8131842885
        0.5550000000      -393.6038502605         1.8321522444         1.1974613514         2.9498221490        -3.6594623254        -6.8696831356
        0.5600000000      -396.1845702787         1.8294080553         1.1719380829         2.9345108842        -4.3243355677        -6.9147251970
        0.5650000000      -398.1045608825         1.8273659399         1.1464148143         2.9217514970        -4.9892088100        -6.9482353546
        0.5700000000      -399.3606200436         1.8260297288         1.1566241217         2.8911289674        -4.7232595131        -6.9701577226
        0.5750000000      -399.9506529927         1.8254019700         1.1693857560         2.8834733351        -4.3908228919        -6.9804557402
        0.5800000000      -399.8736757133         1.8254838719         1.1489671412         2.8579545605        -4.9227214857        -6.9791122332
        0.5850000000      -399.1298165830         1.8262752764         1.1515194680         2.8400914183        -4.8562341615        -6.9661294423
        0.5900000000      -397.7203161588         1.8277746624         1.1464148143         2.8222282761        -4.9892088100        -6.9415290190
        0.5950000000      -395.6475251088         1.8299791799         1.1362055069         2.8018132564        -5.2551581069        -6.9053519905
        0.6000000000      -392.9149002915         1.8328847136         1.1591764486         2.7916057465        -4.6567721888        -6.8576586902
        0.6050000000      -389.5269989909         1.8364859753         1.1515194680         2.7660869720        -4.8562341615        -6.7985286578
        0.6100000000      -385.4894713160         1.8407766227         1.1515194680         2.7507757072        -4.8562341615        -6.7280605062
        0.6150000000      -380.8090507783         1.8457494030         1.1336531800         2.7252569326        -5.3216454311        -6.6463717575
        0.6200000000      -375.4935430616         1.8513963170         1.1438624875         2.7073937904        -5.0556961342        -6.5535986464
        0.6250000000      -369.5518130045         1.8577088023         1.1413101606         2.6869787707        -5.1221834584        -6.4498958936
        0.6300000000      -362.9937698164         1.8646779291         1.1336531800         2.6691156285        -5.3216454311        -6.3354364475
        0.6350000000      -355.8303505513         1.8722946079         1.1336531800         2.6487006088        -5.3216454311        -6.2104111956
        0.6400000000      -348.0735018678         1.8805498013         1.1464148143         2.6333893441        -4.9892088100        -6.0750286465
        0.6450000000      -339.7361601053         1.8894347377         1.1413101606         2.6078705695        -5.1221834584        -5.9295145819
        0.6500000000      -330.8322297098         1.8989411204         1.1387578337         2.5925593047        -5.1886707827        -5.7741116802
        0.6550000000      -321.3765600449         1.9090613287         1.1362055069         2.5670405302        -5.2551581069        -5.6090791115
        0.6600000000      -311.3849206268         1.9197886049         1.1387578337         2.5466255105        -5.1886707827        -5.4346921060
        0.6650000000      -300.8739748256         1.9311172231         1.1438624875         2.5287623683        -5.0556961342        -5.2512414943
