% f=0.80Hz  n_cycles=5  N_total=1250  dt=0.005000
% Amp=1.0000V  K_lin=8.382100
Time[s]              Vcmd[V]              Vc[V]                Vg[V]                Pot[V]               Omega[rad/s]         Omega_target[rad/s] 
        0.0000000000         0.0000000000         2.5000000000         1.3403916554         0.9287352015         0.0804496623         0.0000000000
        0.0050000000         0.0251300954         2.5000000000         1.3378393285         0.9236314466         0.0139623381         0.2106429730
        0.0100000000         0.0502443182         2.5000000000         1.3403916554         0.9312870789         0.0804496623         0.4211528994
        0.0150000000         0.0753268055         2.7750752606         1.3352870017         0.9236314466        -0.0525249861         0.6313968166
        0.0200000000         0.1003617149         2.7870057202         1.3352870017         0.9236314466        -0.0525249861         0.8412419301
        0.0250000000         0.1253332336         2.7989586188         1.3301823480         0.9185276916        -0.1854996346         1.0505556971
        0.0300000000         0.1502255891         2.8109266561         1.3403916554         0.9312870789         0.0804496623         1.2592059106
        0.0350000000         0.1750230590         2.8229024256         1.3327346748         0.9236314466        -0.1190123104         1.4670607826
        0.0400000000         0.1997099805         2.8348784167         1.3454963091         0.9312870789         0.2134243108         1.6739890277
        0.0450000000         0.2242707609         2.8468470166         1.3301823480         0.9210795691        -0.1854996346         1.8798599454
        0.0500000000         0.2486898872         2.8588005134         1.3378393285         0.9236314466         0.0139623381         2.0845435032
        0.0550000000         0.2729519355         2.8707310989         1.3454963091         0.9287352015         0.2134243108         2.2879104187
        0.0600000000         0.2970415816         2.8826308716         1.4195137880         0.9236314466         2.1415567133         2.4898322409
        0.0650000000         0.3209436098         2.8944918404         1.3812288851         0.9363908338         1.1442468499         2.6901814318
        0.0700000000         0.3446429232         2.9063059283         1.3812288851         0.9414945888         1.1442468499         2.8888314463
        0.0750000000         0.3681245527         2.9180649764         1.4169614611         0.9414945888         2.0750693891         3.0856568131
        0.0800000000         0.3913736668         2.9297607490         1.3863335388         0.9414945888         1.2772214984         3.2805332128
        0.0850000000         0.4143755810         2.9413849376         1.3965428462         0.9542539761         1.5431707953         3.4733375574
        0.0900000000         0.4371157667         2.9529291670         1.4322754222         0.9593577310         2.4739933345         3.6639480676
        0.0950000000         0.4595798606         2.9643850003         1.3888858657         0.9644614859         1.3437088226         3.8522443497
        0.1000000000         0.4817536741         2.9757439454         1.4144091342         0.9772208732         2.0085820649         4.0381074717
        0.1050000000         0.5036232016         2.9869974614         1.4297230954         0.9848765056         2.4075060102         4.2214200384
        0.1100000000         0.5251746300         2.9981369654         1.4271707685         1.0027396478         2.3410186860         4.4020662658
        0.1150000000         0.5463943467         3.0091538399         1.4424847297         1.0129471576         2.7399426314         4.5799320538
        0.1200000000         0.5672689491         3.0200394410         1.4399324028         1.0206027900         2.6734553072         4.7549050585
        0.1250000000         0.5877852523         3.0307851060         1.4424847297         1.0257065449         2.7399426314         4.9268747632
        0.1300000000         0.6079302977         3.0413821630         1.4501417102         1.0308102998         2.9394046041         5.0957325483
        0.1350000000         0.6276913613         3.0518219394         1.4501417102         1.0563290744         2.9394046041         5.2613717595
        0.1400000000         0.6470559616         3.0620957723         1.4475893834         1.0588809519         2.8729172798         5.4236877755
        0.1450000000         0.6660118674         3.0721950182         1.4629033445         1.0665365843         3.2718412252         5.5825780740
        0.1500000000         0.6845471059         3.0821110636         1.4577986908         1.0818478490         3.1388665767         5.7379422966
        0.1550000000         0.7026499698         3.0918353367         1.4680079982         1.0971591138         3.4048158736         5.8896823119
        0.1600000000         0.7203090249         3.1013593186         1.4552463639         1.1022628687         3.0723792525         6.0377022775
        0.1650000000         0.7375131174         3.1106745551         1.4756649788         1.1201260109         3.6042778463         6.1819087010
        0.1700000000         0.7542513807         3.1197726695         1.4807696325         1.1405410306         3.7372524948         6.3222104985
        0.1750000000         0.7705132428         3.1286453753         1.4782173056         1.1430929080         3.6707651706         6.4585190523
        0.1800000000         0.7862884321         3.1372844894         1.4833219594         1.1635079277         3.8037398190         6.5907482670
        0.1850000000         0.8015669849         3.1456819454         1.4680079982         1.1839229474         3.4048158736         6.7188146239
        0.1900000000         0.8163392507         3.1538298080         1.4884266131         1.1915785797         3.9367144675         6.8426372334
        0.1950000000         0.8305958992         3.1617202864         1.4909789399         1.2017860896         4.0032017917         6.9621378866
        0.2000000000         0.8443279255         3.1693457491         1.4960835936         1.2247529867         4.1361764401         7.0772411044
        0.2050000000         0.8575266562         3.1766987382         1.4935312668         1.2349604965         4.0696891159         7.1878741849
        0.2100000000         0.8701837547         3.1837719841         1.4986359205         1.2528236388         4.2026637644         7.2939672500
        0.2150000000         0.8822912264         3.1905584200         1.5062929011         1.2655830261         4.4021257370         7.3954532891
        0.2200000000         0.8938414242         3.1970511969         1.5088452279         1.2911018006         4.4686130613         7.4922682014
        0.2250000000         0.9048270525         3.2032436979         1.5088452279         1.3089649429         4.4686130613         7.5843508365
        0.2300000000         0.9152411726         3.2091295530         1.5190545354         1.3217243302         4.7345623582         7.6716430330
        0.2350000000         0.9250772068         3.2147026532         1.5292638428         1.3497949822         5.0005116551         7.7540896554
        0.2400000000         0.9343289425         3.2199571647         1.5190545354         1.3600024920         4.7345623582         7.8316386286
        0.2450000000         0.9429905359         3.2248875425         1.5318161696         1.3829693892         5.0669989793         7.9042409709
        0.2500000000         0.9510565163         3.2294885441         1.5369208233         1.4008325314         5.1999736278         7.9718508252
        0.2550000000         0.9585217890         3.2337552419         1.5267115159         1.4135919187         4.9340243309         8.0344254877
        0.2600000000         0.9653816388         3.2376830355         1.5522347845         1.4416625707         5.5988975731         8.0919254349
        0.2650000000         0.9716317329         3.2412676639         1.5649964188         1.4671813453         5.9313341943         8.1443143485
        0.2700000000         0.9772681236         3.2445052162         1.5445778039         1.4824926101         5.3994356004         8.1915591386
        0.2750000000         0.9822872507         3.2473921415         1.5547871113         1.5029076297         5.6653848974         8.2336299643
        0.2800000000         0.9866859442         3.2499252589         1.5701010725         1.5335301593         6.0643088427         8.2705002529
        0.2850000000         0.9904614257         3.2521017657         1.5471301308         1.5462895465         5.4659229247         8.3021467163
        0.2900000000         0.9936113105         3.2539192452         1.5726533993         1.5692564437         6.1307961669         8.3285493659
        0.2950000000         0.9961336091         3.2553756729         1.5598917651         1.5896714634         5.7983595458         8.3496915252
        0.3000000000         0.9980267284         3.2564694227         1.5726533993         1.6202939929         6.1307961669         8.3655598404
        0.3050000000         0.9992894726         3.2571992708         1.5752057262         1.6458127674         6.1972834912         8.3761442886
        0.3100000000         0.9999210442         3.2575643996         1.5803103799         1.6662277871         6.3302581396         8.3814381846
        0.3150000000         0.9999210442         3.2575643996         1.5777580530         1.6840909293         6.2637708154         8.3814381846
        0.3200000000         0.9992894726         3.2571992708         1.5956243410         1.7096097039         6.7291820850         8.3761442886
        0.3250000000         0.9980267284         3.2564694227         1.5701010725         1.7249209687         6.0643088427         8.3655598404
        0.3300000000         0.9961336091         3.2553756729         1.5879673605         1.7606472531         6.5297201123         8.3496915252
        0.3350000000         0.9936113105         3.2539192452         1.5854150336         1.7759585179         6.4632327881         8.3285493659
        0.3400000000         0.9904614257         3.2521017657         1.5905196873         1.8091329248         6.5962074365         8.3021467163
        0.3450000000         0.9866859442         3.2499252589         1.5803103799         1.8193404347         6.3302581396         8.2705002529
        0.3500000000         0.9822872507         3.2473921415         1.5854150336         1.8525148416         6.4632327881         8.2336299643
        0.3550000000         0.9772681236         3.2445052162         1.5956243410         1.8831373711         6.7291820850         8.1915591386
        0.3600000000         0.9716317329         3.2412676639         1.5956243410         1.9010005134         6.7291820850         8.1443143485
        0.3650000000         0.9653816388         3.2376830355         1.5981766679         1.9290711654         6.7956694092         8.0919254349
        0.3700000000         0.9585217890         3.2337552419         1.5854150336         1.9520380625         6.4632327881         8.0344254877
        0.3750000000         0.9510565163         3.2294885441         1.5905196873         1.9750049597         6.5962074365         7.9718508252
        0.3800000000         0.9429905359         3.2248875425         1.5981766679         2.0030756117         6.7956694092         7.9042409709
        0.3850000000         0.9343289425         3.2199571647         1.5879673605         2.0234906314         6.5297201123         7.8316386286
        0.3900000000         0.9250772068         3.2147026532         1.5905196873         2.0515612834         6.5962074365         7.7540896554
        0.3950000000         0.9152411726         3.2091295530         1.5726533993         2.0694244256         6.1307961669         7.6716430330
        0.4000000000         0.9048270525         3.2032436979         1.5828627068         2.0974950777         6.3967454638         7.5843508365
        0.4050000000         0.8938414242         3.1970511969         1.5879673605         2.1230138523         6.5297201123         7.4922682014
        0.4100000000         0.8822912264         3.1905584200         1.5777580530         2.1459807494         6.2637708154         7.3954532891
        0.4150000000         0.8701837547         3.1837719841         1.5854150336         2.1791551564         6.4632327881         7.2939672500
        0.4200000000         0.8575266562         3.1766987382         1.5981766679         2.2097776859         6.7956694092         7.1878741849
        0.4250000000         0.8443279255         3.1693457491         1.5803103799         2.2225370732         6.3302581396         7.0772411044
        0.4300000000         0.8305958992         3.1617202864         1.5854150336         2.2506077252         6.4632327881         6.9621378866
        0.4350000000         0.8163392507         3.1538298080         1.5930720142         2.2761264998         6.6626947608         6.8426372334
        0.4400000000         0.8015669849         3.1456819454         1.5752057262         2.2965415195         6.1972834912         6.7188146239
        0.4450000000         0.7862884321         3.1372844894         1.5828627068         2.3220602941         6.3967454638         6.5907482670
        0.4500000000         0.7705132428         3.1286453753         1.5777580530         2.3450271912         6.2637708154         6.4585190523
        0.4550000000         0.7542513807         3.1197726695         1.5777580530         2.3730978433         6.2637708154         6.3222104985
        0.4600000000         0.7375131174         3.1106745551         1.5828627068         2.3986166179         6.3967454638         6.1819087010
        0.4650000000         0.7203090249         3.1013593186         1.5854150336         2.4292391474         6.4632327881         6.0377022775
        0.4700000000         0.7026499698         3.0918353367         1.5777580530         2.4471022896         6.2637708154         5.8896823119
        0.4750000000         0.6845471059         3.0821110636         1.5649964188         2.4649654318         5.9313341943         5.7379422966
        0.4800000000         0.6660118674         3.0721950182         1.5854150336         2.5006917162         6.4632327881         5.5825780740
        0.4850000000         0.6470559616         3.0620957723         1.5777580530         2.5185548584         6.2637708154         5.4236877755
        0.4900000000         0.6276913613         3.0518219394         1.5624440919         2.5491773879         5.8648468700         5.2613717595
        0.4950000000         0.6079302977         3.0413821630         1.5496824576         2.5593848978         5.5324102489         5.0957325483
        0.5000000000         0.5877852523         3.0307851060         1.5752057262         2.5797999174         6.1972834912         4.9268747632
        0.5050000000         0.5672689491         3.0200394410         1.5573394382         2.6078705695         5.7318722216         4.7549050585
        0.5100000000         0.5463943467         3.0091538399         1.5752057262         2.6384930990         6.1972834912         4.5799320538
        0.5150000000         0.5251746300         2.9981369654         1.5598917651         2.6487006088         5.7983595458         4.4020662658
        0.5200000000         0.5036232016         2.9869974614         1.5573394382         2.6767712609         5.7318722216         4.2214200384
        0.5250000000         0.4817536741         2.9757439454         1.5624440919         2.6997381580         5.8648468700         4.0381074717
        0.5300000000         0.4595798606         2.9643850003         1.5701010725         2.7227050552         6.0643088427         3.8522443497
        0.5350000000         0.4371157667         2.9529291670         1.5522347845         2.7456719523         5.5988975731         3.6639480676
        0.5400000000         0.4143755810         2.9413849376         1.5471301308         2.7660869720         5.4659229247         3.4733375574
        0.5450000000         0.3913736668         2.9297607490         1.5905196873         2.7941576240         6.5962074365         3.2805332128
        0.5500000000         0.3681245527         2.9180649764         1.5369208233         2.8018132564         5.1999736278         3.0856568131
        0.5550000000         0.3446429232         2.9063059283         1.5445778039         2.8349876633         5.3994356004         2.8888314463
        0.5600000000         0.3209436098         2.8944918404         1.5343684965         2.8426432957         5.1334863035         2.6901814318
        0.5650000000         0.2970415816         2.8826308716         1.5394731502         2.8681620703         5.2664609520         2.4898322409
        0.5700000000         0.2729519355         2.8707310989         1.5343684965         2.8885770900         5.1334863035         2.2879104187
        0.5750000000         0.2486898872         2.8588005134         1.5267115159         2.9038883547         4.9340243309         2.0845435032
        0.5800000000         0.2242707609         2.8468470166         1.5190545354         2.9191996195         4.7345623582         1.8798599454
        0.5850000000         0.1997099805         2.8348784167         1.5420254771         2.9447183941         5.3329482762         1.6739890277
        0.5900000000         0.1750230590         2.8229024256         1.5113975548         2.9574777814         4.5351003855         1.4670607826
        0.5950000000         0.1502255891         2.8109266561         1.5190545354         2.9778928011         4.7345623582         1.2592059106
        0.6000000000         0.1253332336         2.7989586188         1.5088452279         3.0008596982         4.4686130613         1.0505556971
        0.6050000000         0.1003617149         2.7870057202         1.5190545354         3.0238265953         4.7345623582         0.8412419301
        0.6100000000         0.0753268055         2.7750752606         1.5062929011         3.0391378601         4.4021257370         0.6313968166
        0.6150000000         0.0502443182         2.5000000000         1.5037405742         3.0493453699         4.3356384128         0.4211528994
        0.6200000000         0.0251300954         2.5000000000         1.4884266131         3.0646566347         3.9367144675         0.2106429730
        0.6250000000         0.0000000000         2.5000000000         1.4858742862         3.0774160220         3.8702271432         0.0000000000
        0.6300000000        -0.0251300954         2.5000000000         1.4858742862         3.1029347965         3.8702271432        -0.2106429730
        0.6350000000        -0.0502443182         2.5000000000         1.4680079982         3.1156941838         3.4048158736        -0.4211528994
        0.6400000000        -0.0753268055         2.2052043875         1.4552463639         3.1207979388         3.0723792525        -0.6313968166
        0.6450000000        -0.1003617149         2.1927658653         1.4501417102         3.1284535711         2.9394046041        -0.8412419301
        0.6500000000        -0.1253332336         2.1803050394         1.4169614611         3.1412129584         2.0750693891        -1.0505556971
        0.6550000000        -0.1502255891         2.1678295397         1.4016475000         3.1488685908         1.6761454438        -1.2592059106
        0.6600000000        -0.1750230590         2.1553471046         1.3684672508         3.1488685908         0.8118102288        -1.4670607826
        0.6650000000        -0.1997099805         2.1428655785         1.3608102703         3.1641798556         0.6123482561        -1.6739890277
