% f=4.90Hz  n_cycles=5  N_total=204  dt=0.005000
% Amp=400.00deg/s
Time[s]              OmegaCmd[deg/s]      Vc[V]                Vg[V]                Pot[V]               Omega[rad/s]         Omega_target[rad/s] 
        0.0000000000         0.0000000000         2.4974092728         1.3429439823         0.6046467642         0.1303151555         0.0000000000
        0.0050000000        61.3323134948         2.7686776280         1.3352870017         0.5969911318        -0.0691468172         1.0704508083
        0.0100000000       121.2141078531         2.8393177969         1.3429439823         0.5969911318         0.1303151555         2.1155852819
        0.0150000000       178.2291689508         2.9038778082         1.3429439823         0.6020948867         0.1303151555         3.1106858213
        0.0200000000       231.0290813689         2.9616229822         1.3429439823         0.6046467642         0.1303151555         4.0322181377
        0.0250000000       278.3651186369         3.0120191651         1.3403916554         0.5969911318         0.0638278313         4.8583878429
        0.0300000000       319.1177758154         3.0546070820         1.3403916554         0.5969911318         0.0638278313         5.5696558896
        0.0350000000       352.3232459692         3.0889236640         1.3378393285         0.5969911318        -0.0026594930         6.1492006735
        0.0400000000       377.1962143571         3.1144891108         1.3378393285         0.5969911318        -0.0026594930         6.5833158666
        0.0450000000       393.1484312530         3.1308537409         1.3352870017         0.5969911318        -0.0691468172         6.8617345744
        0.0500000000       399.8026241463         3.1376775117         1.3429439823         0.5969911318         0.1303151555         6.9778721495
        0.0550000000       397.0014202987         3.1348049474         1.3352870017         0.5969911318        -0.0691468172         6.9289819193
        0.0600000000       384.8110686344         3.1223025288         1.3378393285         0.5969911318        -0.0026594930         6.7162201458
        0.0650000000       363.5198729424         3.1004424950         1.3327346748         0.5893354994        -0.1356341414         6.3446186793
        0.0700000000       333.6313734453         3.0696399840         1.3403916554         0.5969911318         0.0638278313         5.8229659546
        0.0750000000       295.8524379914         3.0303708006         1.3429439823         0.5995430093         0.1303151555         5.1635991430
        0.0800000000       251.0765445163         2.9831070708         1.3684672508         0.6046467642         0.7951883978         4.3821123763
        0.0850000000       200.3626501443         2.9283036825         1.3939905194         0.6097505191         1.4600616400         3.4969879430
        0.0900000000       144.9101466818         2.8664510187         1.4220661148         0.6020948867         2.1914222065         2.5291591791
        0.0950000000        86.0304948068         2.7981851567         1.4629033445         0.6250617838         3.2552193941         1.5015153915
        0.1000000000        25.1162078117         2.7244241400         1.4782173056         0.6301655388         3.6541433395         0.4383605219
        0.1050000000       -36.3920815614         2.2530039819         1.4935312668         0.6531324359         4.0530672849        -0.6351616449
        0.1100000000       -97.0396923182         2.1700700701         1.4858742862         0.6633399457         3.8536053122        -1.6936621361
        0.1150000000      -155.3922986525         2.0965022769         1.4731126519         0.6786512105         3.5211686910        -2.7121072437
        0.1200000000      -210.0698519845         2.0319310793         1.4552463639         0.6888587203         3.0557574215        -3.6664105763
        0.1250000000      -259.7792193321         1.9759766611         1.4373800759         0.7016181076         2.5903461519        -4.5340027056
        0.1300000000      -303.3447661155         1.9284498112         1.4144091342         0.7041699851         1.9919602338        -5.2943649374
        0.1350000000      -339.7361601053         1.8894347377         1.4093044805         0.7169293724         1.8589855854        -5.9295145819
        0.1400000000      -368.0927389463         1.8592591104         1.3837812120         0.7220331273         1.1941123431        -6.4244302473
        0.1450000000      -387.7438649615         1.8383810304         1.3633625971         0.7194812498         0.6622137493        -6.7674070980
        0.1500000000      -398.2247858412         1.8272380522         1.3429439823         0.7245850047         0.1303151555        -6.9503336760
        0.1550000000      -399.2876261113         1.8261073865         1.3250776943         0.7220331273        -0.3350961141        -6.9688837381
        0.1600000000      -390.9072494273         1.8350189224         1.3352870017         0.7296887597        -0.0691468172        -6.8226185724
        0.1650000000      -373.2818530536         1.8537459119         1.3301823480         0.7347925146        -0.2021214656        -6.5149973737
        0.1700000000      -346.8282804658         1.8818759396         1.3072114063         0.7245850047        -0.8005073837        -6.0532954332
        0.1750000000      -312.1721629353         1.9189420143         1.2612695229         0.7143774949        -1.9972792198        -5.4484320763
        0.1800000000      -270.1331232484         1.9645752196         1.2357462543         0.7194812498        -2.6621524620        -4.7147124194
        0.1850000000      -221.7053914947         2.0186305226         1.2051183320         0.7016181076        -3.4600003528        -3.8694890510
        0.1900000000      -168.0342913647         2.0812386795         1.2051183320         0.6939624752        -3.4600003528        -2.9327516406
        0.1950000000      -110.3891530595         2.1527501732         1.2000136783         0.6709955781        -3.5929750012        -1.9266541794
        0.2000000000       -50.1332934257         2.2335598250         1.2153276394         0.6658918232        -3.1940510559        -0.8749910351
        0.2050000000        11.3082267081         2.6221767135         1.2229846200         0.6505805584        -2.9945890832         0.1973657886
        0.2100000000        72.4823054509         2.7820650298         1.2153276394         0.6276136613        -3.1940510559         1.2650548796
        0.2150000000       131.9421659435         2.8516570665         1.2102229857         0.6174061515        -3.3270257043         2.3028252179
        0.2200000000       188.2815728661         2.9150126405         1.2510602154         0.6174061515        -2.2632285167         3.2861333673
        0.2250000000       240.1680901304         2.9714443311         1.2918974451         0.6097505191        -1.1994313290         4.1917239310
        0.2300000000       286.3745932087         3.0204401936         1.2893451183         0.5918873769        -1.2659186533         4.9981795456
        0.2350000000       325.8082908282         3.0615443207         1.3123160600         0.5918873769        -0.6675327352         5.6864274052
        0.2400000000       357.5365696605         3.0942895470         1.3429439823         0.5944392543         0.1303151555         6.2401903369
        0.2450000000       380.8090507783         3.1181966640         1.3480486360         0.5944392543         0.2632898039         6.6463717575
        0.2500000000       395.0753362381         3.1328297865         1.3352870017         0.5944392543        -0.0691468172         6.8953654108
        0.2550000000       399.9980260807         3.1378778929         1.3429439823         0.5867836220         0.1303151555         6.9812825566
        0.2600000000       395.4606978952         3.1332249697         1.3301823480         0.5867836220        -0.2021214656         6.9020912405
        0.2650000000       381.5706602270         3.1189781157         1.3403916554         0.5944392543         0.0638278313         6.6596643500
        0.2700000000       358.6564147141         3.0954415636         1.3429439823         0.5918873769         0.1303151555         6.2597353202
        0.2750000000       327.2598869700         3.0630477460         1.3403916554         0.5918873769         0.0638278313         5.7117625373
        0.2800000000       288.1236099552         3.0222754843         1.3659149240         0.5893354994         0.7287010735         5.0287056464
        0.2850000000       242.1731629524         2.9735928685         1.3633625971         0.6020948867         0.6622137493         4.2267190535
        0.2900000000       190.4952814672         2.9174553856         1.3888858657         0.6046467642         1.3270869916         3.3247698711
        0.2950000000       134.3121557570         2.8543706141         1.4118568074         0.6071986416         1.9254729096         2.3441893434
        0.3000000000        74.9525258343         2.7850161137         1.4577986908         0.6225099064         3.1222447457         1.3081683585
        0.3050000000        13.8202565498         2.6498927775         1.4731126519         0.6301655388         3.5211686910         0.2412089803
        0.3100000000       -47.6388640379         2.2370595131         1.5062929011         0.6454768035         4.3855039060        -0.8314550294
        0.3150000000      -107.9713177842         2.1558642072         1.4833219594         0.6658918232         3.7871179880        -1.8844549931
        0.3200000000      -165.7502323973         2.0839803798         1.4654556714         0.6709955781         3.3217067184        -2.8928872913
        0.3250000000      -219.6091271992         2.0210167257         1.4373800759         0.6812030879         2.5903461519        -3.8329023371
        0.3300000000      -268.2742306147         1.9666167271         1.4220661148         0.6888587203         2.1914222065        -4.6822686225
        0.3350000000      -310.5946050748         1.9206387531         1.4067521537         0.7016181076         1.7924982612        -5.4208984975
        0.3400000000      -345.5693668771         1.8832169511         1.3837812120         0.7016181076         1.1941123431        -6.0313232460
        0.3450000000      -372.3713572468         1.8547132063         1.3761242314         0.7245850047         0.9946503704        -6.4991062241
        0.3500000000      -390.3667047755         1.8355934801         1.3506009628         0.7092737400         0.3297771282        -6.8131842885
        0.3550000000      -399.1298165830         1.8262752764         1.3378393285         0.7169293724        -0.0026594930        -6.9661294423
        0.3600000000      -398.4534436573         1.8269948153         1.3301823480         0.7118256175        -0.2021214656        -6.9543245077
        0.3650000000      -388.3535823275         1.8377330690         1.3352870017         0.7143774949        -0.0691468172        -6.7780486735
        0.3700000000      -369.0690959480         1.8582216916         1.3327346748         0.7194812498        -0.1356341414        -6.4414708917
        0.3750000000      -341.0560657416         1.8880271744         1.3250776943         0.7220331273        -0.3350961141        -5.9525512811
        0.3800000000      -304.9770044046         1.9266892148         1.2663741766         0.7092737400        -1.8643045713        -5.3228528697
        0.3850000000      -261.6851875743         1.9738721854         1.2536125423         0.6939624752        -2.1967411924        -4.5672681269
        0.3900000000      -212.2044737227         2.0294806635         1.2178799663         0.6888587203        -3.1275637316        -3.7036667539
        0.3950000000      -157.7050897372         2.0936935003         1.2051183320         0.6760993330        -3.4600003528        -2.7524730631
        0.4000000000       -99.4759548659         2.1668859008         1.2000136783         0.6633399457        -3.5929750012        -1.7361829390
        0.4050000000       -38.8941975690         2.2494330858         1.2076706589         0.6454768035        -3.3935130285        -0.6788318075
        0.4100000000        22.6074137928         2.7213142474         1.2178799663         0.6403730486        -3.1275637316         0.3945738060
        0.4150000000        83.5743561610         2.7952745799         1.2178799663         0.6225099064        -3.1275637316         1.4586476852
        0.4200000000       142.5647514853         2.8637850858         1.2434032349         0.6174061515        -2.4626904894         2.4882243107
        0.4250000000       198.1834673730         2.9259134190         1.2587171960         0.5969911318        -2.0637665440         3.4589540287
        0.4300000000       249.1151121952         2.9810146931         1.2791358108         0.5918873769        -1.5318679502         4.3478789243
        0.4350000000       294.1551443124         3.0285950429         1.3046590794         0.5842317445        -0.8669947079         5.1339757799
        0.4400000000       332.2383596783         3.0681996181         1.3250776943         0.5842317445        -0.3350961141         5.7986532778
        0.4450000000       362.4640840885         3.0993571602         1.3378393285         0.5842317445        -0.0026594930         6.3261916876
        0.4500000000       384.1174742708         3.1215910066         1.3429439823         0.5944392543         0.1303151555         6.7041146405
        0.4550000000       396.6864240442         3.1344819266         1.3429439823         0.5969911318         0.1303151555         6.9234841975
        0.4600000000       399.8736757133         3.1377503738         1.3352870017         0.5893354994        -0.0691468172         6.9791122332
        0.4650000000       393.6038502605         3.1313207796         1.3301823480         0.5842317445        -0.2021214656         6.8696831356
        0.4700000000       378.0252300719         3.1153399525         1.3454963091         0.5969911318         0.1968024797         6.5977849204
        0.4750000000       353.5062520355         3.0901417072         1.3378393285         0.5893354994        -0.0026594930         6.1698480244
        0.4800000000       320.6267939484         3.0561729034         1.3480486360         0.5893354994         0.2632898039         5.5959932245
        0.4850000000       280.1644603135         3.0139133644         1.3608102703         0.5918873769         0.5957264251         4.8897922795
        0.4900000000       233.0761918674         2.9638270481         1.3914381925         0.5995430093         1.3935743158         4.0679469561
        0.4950000000       180.4756337767         2.9063722608         1.4067521537         0.6046467642         1.7924982612         3.1498940290
        0.5000000000       123.6067977500         2.8420778522         1.4297230954         0.6123023966         2.3908841792         2.1573455986
        0.5050000000        63.8146409594         2.7716675939         1.4807696325         0.6225099064         3.7206306637         1.1137755957
        0.5100000000         2.5132575862         2.5251388828         1.4807696325         0.6352692937         3.7206306637         0.0438646198
        0.5150000000       -58.8475647354         2.2214356498         1.4807696325         0.6531324359         3.7206306637        -1.0270837614
        0.5200000000      -118.8166326308         2.1419731242         1.4731126519         0.6684437007         3.5211686910        -2.0737414455
        0.5250000000      -175.9756679424         2.0717592807         1.4424847297         0.6990662302         2.7233208003        -3.0713548090
        0.5300000000      -228.9728502378         2.0103906469         1.4220661148         0.6914105978         2.1914222065        -3.9963301343
        0.5350000000      -276.5547875821         1.9575401284         1.4195137880         0.7067218625         2.1249348823        -4.8267916055
        0.5400000000      -317.5961594591         1.9131156990         1.3965428462         0.7016181076         1.5265489642        -5.5430986743
        0.5450000000      -351.1263307844         1.8772997303         1.3863335388         0.7143774949         1.2605996673        -6.1283105626
        0.5500000000      -376.3523075817         1.8504840202         1.3735719045         0.7220331273         0.9281630462        -6.5685869148
        0.5550000000      -392.6774914186         1.8331371080         1.3506009628         0.7169293724         0.3297771282        -6.8535151237
        0.5600000000      -399.7157890562         1.8256518567         1.3429439823         0.7271368822         0.1303151555        -6.9763565912
        0.5650000000      -397.3007436169         1.8282209416         1.3276300211         0.7118256175        -0.2686087899        -6.9342060967
        0.5700000000      -385.4894713160         1.8407766227         1.3352870017         0.7169293724        -0.0691468172        -6.7280605062
        0.5750000000      -364.5613106542         1.8630118623         1.3250776943         0.7169293724        -0.3350961141        -6.3627951963
        0.5800000000      -335.0112160169         1.8944768417         1.3046590794         0.7092737400        -0.8669947079        -5.8470487506
        0.5850000000      -297.5380519228         1.9347231943         1.2740311571         0.7194812498        -1.6648425986        -5.1930186560
        0.5900000000      -253.0280647653         1.9834526069         1.2357462543         0.7041699851        -2.6621524620        -4.4161728301
        0.5950000000      -202.5339229413         2.0406205029         1.2153276394         0.6990662302        -3.1940510559        -3.5348838023
        0.6000000000      -147.2498210739         2.1064512189         1.2025660052         0.6786512105        -3.5264876770        -2.5699942007
        0.6050000000       -88.4832371161         2.1813379976         1.1949090246         0.6658918232        -3.7259496497        -1.5443238205
        0.6100000000       -27.6240102858         2.2656264530         1.2000136783         0.6429249261        -3.5929750012        -0.4821299321
        0.6150000000        33.8885288568         2.7352527711         1.2102229857         0.6378211711        -3.3270257043         0.5914664072
        0.6200000000        94.5995988095         2.8082991542         1.2229846200         0.6327174162        -2.9945890832         1.6510744703
        0.6250000000       153.0733729460         2.8756970084         1.2382985811         0.6199580289        -2.5956651378         2.6716343550
        0.6300000000       207.9269370483         2.9365767323         1.2587171960         0.6097505191        -2.0637665440         3.6290096551
        0.6350000000       257.8629954510         2.9903312453         1.2944497720         0.6046467642        -1.1329440048         4.5005582897
        0.6400000000       301.7005522944         3.0364808919         1.3097637331         0.5944392543        -0.7340200595         5.2656679926
        0.6450000000       338.4028422671         3.0745699812         1.3327346748         0.5944392543        -0.1356341414         5.9062437957
        0.6500000000       367.1018502736         3.1041235754         1.3454963091         0.5944392543         0.1968024797         6.4071359774
        0.6550000000       387.1188401315         3.1246697702         1.3429439823         0.5969911318         0.1303151555         6.7564983568
        0.6600000000       397.9804067925         3.1358088717         1.3352870017         0.5944392543        -0.0691468172         6.9460684570
        0.6650000000       399.4296724478         3.1372950573         1.3403916554         0.5944392543         0.0638278313         6.9713629144
