% f=4.70Hz  n_cycles=5  N_total=212  dt=0.005000
% Amp=1.0000V  K_lin=8.382100
Time[s]              Vcmd[V]              Vc[V]                Vg[V]                Pot[V]               Omega[rad/s]         Omega_target[rad/s] 
        0.0000000000         0.0000000000         2.5000000000         1.3352870017         1.0231546675        -0.0525249861         0.0000000000
        0.0050000000         0.1471189118         2.8094300757         1.3352870017         1.0257065449        -0.0525249861         1.2331654309
        0.0100000000         0.2910361668         2.8796592527         1.3557056165         1.0257065449         0.4793736077         2.4394942540
        0.0150000000         0.4286197838         2.9486099855         1.3301823480         1.0206027900        -0.1854996346         3.5927338896
        0.0200000000         0.5568756165         3.0146135907         1.3352870017         1.0257065449        -0.0525249861         4.6677871050
        0.0250000000         0.6730125135         3.0759354654         1.3301823480         1.0180509125        -0.1854996346         5.6412581895
        0.0300000000         0.7745030602         3.1308273702         1.3352870017         1.0257065449        -0.0525249861         6.4919621009
        0.0350000000         0.8591385813         3.1775983394         1.3454963091         1.0333621773         0.2134243108         7.2013855021
        0.0400000000         0.9250772068         3.2147026532         1.4807696325         1.0359140547         3.7372524948         7.7540896554
        0.0450000000         0.9708839558         3.2408384893         1.4322754222         1.0359140547         2.4739933345         8.1380464061
        0.0500000000         0.9955619646         3.2550455104         1.4041998268         1.0435696871         1.7426327680         8.3448999435
        0.0550000000         0.9985741811         3.2567858133         1.4884266131         1.0614328293         3.9367144675         8.3701486436
        0.0600000000         0.9798550524         3.2459927148         1.5088452279         1.0741922166         4.4686130613         8.2132430346
        0.0650000000         0.9398119511         3.2230769748         1.4629033445         1.0869516039         3.2718412252         7.8775977552
        0.0700000000         0.8793163102         3.1888890779         1.5037405742         1.1048147461         4.3356384128         7.3705172436
        0.0750000000         0.7996846585         3.1446457517         1.5062929011         1.1201260109         4.4021257370         6.7030367759
        0.0800000000         0.7026499698         3.0918353367         1.4935312668         1.1405410306         4.0696891159         5.8896823119
        0.0850000000         0.5903239494         3.0321180430         1.5216068622         1.1635079277         4.8010496824         4.9481543759
        0.0900000000         0.4651510781         2.9672341527         1.5037405742         1.1788191925         4.3356384128         3.8989428516
        0.0950000000         0.3298554149         2.8989280537         1.5088452279         1.2017860896         4.4686130613         2.7648810729
        0.1000000000         0.1873813146         2.8288908669         1.5113975548         1.2094417220         4.5351003855         1.5706489170
        0.1050000000         0.0408293520         2.5000000000         1.4960835936         1.2222011093         4.1361764401         0.3422357112
        0.1100000000        -0.1066111543         2.1896524536         1.4782173056         1.2400642515         3.6707651706        -0.8936253563
        0.1150000000        -0.2517315487         2.1163817697         1.4705603251         1.2553755162         3.4713031979        -2.1100390141
        0.1200000000        -0.3913736668         2.0440201584         1.4220661148         1.2604792711         2.2080440376        -3.2805332128
        0.1250000000        -0.5224985647         1.9742798874         1.3914381925         1.2706867810         1.4101961468        -4.3796352193
        0.1300000000        -0.6422526532         1.9089493883         1.3659149240         1.2706867810         0.7453229046        -5.3834259642
        0.1350000000        -0.7480297989         1.8498435546         1.3301823480         1.2757905359        -0.1854996346        -6.2700605774
        0.1400000000        -0.8375280400         1.7987355457         1.3276300211         1.2808942908        -0.2519869588        -7.0202437844
        0.1450000000        -0.9087996824         1.7572708581         1.3429439823         1.2808942908         0.1469369865        -7.6176498175
        0.1500000000        -0.9602936857         1.7268688630         1.2102229857         1.2757905359        -3.3104038732        -8.0492777027
        0.1550000000        -0.9908894182         1.7086222803         1.2434032349         1.2681349035        -2.4460686583        -8.3057341925
        0.1600000000        -0.9999210442         1.7032093741         1.2434032349         1.2553755162        -2.4460686583        -8.3814381846
        0.1650000000        -0.9871920140         1.7108347095         1.1872520440         1.2426161289        -3.9087897913        -8.2747421805
        0.1700000000        -0.9529793415         1.7312105558         1.1770427366         1.2324086191        -4.1747390882        -7.9879681385
        0.1750000000        -0.8980275758         1.7635829469         1.2178799663         1.2196492318        -3.1109419006        -7.5273569428
        0.1800000000        -0.8235325976         1.8067968060         1.1515194680         1.1992342121        -4.8396123305        -6.9029325866
        0.1850000000        -0.7311155947         1.8593870617         1.2051183320         1.1788191925        -3.4433785217        -6.1282840266
        0.1900000000        -0.6227877805         1.9196797767         1.1770427366         1.1737154375        -4.1747390882        -5.2202694548
        0.1950000000        -0.5009066254         1.9858890704         1.1642811023         1.1558522953        -4.5071757093        -4.1986494244
        0.2000000000        -0.3681245527         2.0562002571         1.1949090246         1.1430929080        -3.7093278186        -3.0856568131
        0.2050000000        -0.2273312156         2.1288348485         1.1693857560         1.1175741334        -4.3742010609        -1.9055129827
        0.2100000000        -0.0815906116         2.2020972610         1.1693857560         1.1048147461        -4.3742010609        -0.6839006652
        0.2150000000         0.0659255980         2.7706085947         1.1974613514         1.0920553588        -3.6428404944         0.5525949546
        0.2200000000         0.2120071099         2.8408641202         1.2025660052         1.0792959716        -3.5098658459         1.7770647961
        0.2250000000         0.3534748438         2.9107224620         1.2434032349         1.0665365843        -2.4460686583         2.9628614880
        0.2300000000         0.4872501257         2.9785675430         1.2995544257         1.0588809519        -0.9833475253         4.0841792788
        0.2350000000         0.6104216880         3.0426959141         1.3429439823         1.0512253195         0.1469369865         5.1166156308
        0.2400000000         0.7203090249         3.1013593186         1.3403916554         1.0537771970         0.0804496623         6.0377022775
        0.2450000000         0.8145207271         3.1528252426         1.3276300211         1.0588809519        -0.2519869588         6.8273941864
        0.2500000000         0.8910065242         3.1954558992         1.3454963091         1.0639847068         0.2134243108         7.4685057864
        0.2550000000         0.9481019037         3.2278020871         1.3378393285         1.0588809519         0.0139623381         7.9470849669
        0.2600000000         0.9845643345         3.2487031103         1.3888858657         1.0665365843         1.3437088226         8.2527167085
        0.2650000000         0.9996003077         3.2573789656         1.5190545354         1.0792959716         4.7345623582         8.3787497388
        0.2700000000         0.9928826046         3.2534986516         1.4424847297         1.0895034814         2.7399426314         8.3224412798
        0.2750000000         0.9645574185         3.2372107441         1.4526940371         1.0971591138         3.0058919283         8.0850167373
        0.2800000000         0.9152411726         3.2091295530         1.5241591891         1.1048147461         4.8675370066         7.6716430330
        0.2850000000         0.8460071057         3.1702799246         1.4909789399         1.1277816433         4.0032017917         7.0913161604
        0.2900000000         0.7583619153         3.1220122995         1.4731126519         1.1481966629         3.5377905221         6.3566654101
        0.2950000000         0.6542129689         3.0659039123         1.5292638428         1.1635079277         5.0005116551         5.4836785269
        0.3000000000         0.5358267950         3.0036612711         1.4986359205         1.1737154375         4.2026637644         4.4913537782
        0.3050000000         0.4057797577         2.9370347859         1.5088452279         1.1890267023         4.4686130613         3.4012865067
        0.3100000000         0.2669019893         2.8677510310         1.5037405742         1.2043379670         4.3356384128         2.2371991647
        0.3150000000         0.1222157999         2.7974635278         1.4935312668         1.2145454769         4.0696891159         1.0244250567
        0.3200000000        -0.0251300954         2.5000000000         1.4680079982         1.2298567416         3.4048158736        -0.2106429730
        0.3250000000        -0.1719291003         2.1569075211         1.4858742862         1.2477198838         3.8702271432        -1.4411269115
        0.3300000000        -0.3149865197         2.0838378118         1.4552463639         1.2579273937         3.0723792525        -2.6402485064
        0.3350000000        -0.4511890844         2.0124303454         1.4297230954         1.2783424134         2.4075060102        -3.7819120247
        0.3400000000        -0.5775727034         1.9444364423         1.4067521537         1.2885499232         1.8091200922        -4.8412721574
        0.3450000000        -0.6913869690         1.8816635781         1.3633625971         1.2859980457         0.6788355804        -5.7952747125
        0.3500000000        -0.7901550124         1.8259175450         1.3327346748         1.2859980457        -0.1190123104        -6.6231583292
        0.3550000000        -0.8717274065         1.7789260073         1.3301823480         1.2859980457        -0.1854996346        -7.3069062943
        0.3600000000        -0.9343289425         1.7422460195         1.2816881377         1.2885499232        -1.4487587949        -7.8316386286
        0.3650000000        -0.9765972621         1.7171630427         1.2102229857         1.2681349035        -3.3104038732        -8.1859359103
        0.3700000000        -0.9976125064         1.7045941122         1.2434032349         1.2579273937        -2.4460686583        -8.3620877896
        0.3750000000        -0.9969173337         1.7050109427         1.2178799663         1.2502717613        -3.1109419006        -8.3562607831
        0.3800000000        -0.9745268728         1.7183977567         1.1617287755         1.2426161289        -4.5736630336        -8.1685817004
        0.3850000000        -0.9309283931         1.7442527242         1.2127753126         1.2222011093        -3.2439165490        -7.8031348839
        0.3900000000        -0.8670707012         1.7816327013         1.1719380829         1.2196492318        -4.3077137366        -7.2678733242
        0.3950000000        -0.7843434919         1.8292318764         1.1693857560         1.1966823347        -4.3742010609        -6.5744455837
        0.4000000000        -0.6845471059         1.8854793228         1.1795950634         1.1711635601        -4.1082517640        -5.7379422966
        0.4050000000        -0.5698533495         1.9486397690         1.1464148143         1.1558522953        -4.9725869789        -4.7765677606
        0.4100000000        -0.4427582310         2.0169052246         1.1744904097         1.1533004179        -4.2412264124        -3.7112437684
        0.4150000000        -0.3060276422         2.0884702676         1.1974613514         1.1379891531        -3.6428404944        -2.5651542996
        0.4200000000        -0.1626371652         2.1615887013         1.1591764486         1.1150222560        -4.6401503578        -1.3632409824
        0.4250000000        -0.0157073173         2.5000000000         1.1821473903         1.0946072363        -4.0417644397        -0.1316603044
        0.4300000000         0.1315643591         2.8019494964         1.1795950634         1.0792959716        -4.1082517640         1.1027856143
        0.4350000000         0.2759728826         2.8722204186         1.1923566977         1.0665365843        -3.7758151428         2.3132322996
        0.4400000000         0.4143755810         2.9413849376         1.2587171960         1.0665365843        -2.0471447129         3.4733375574
        0.4450000000         0.5437604828         3.0077837321         1.3046590794         1.0512253195        -0.8503728769         4.5578547427
        0.4500000000         0.6613118653         3.0696870459         1.3557056165         1.0563290744         0.4793736077         5.5431821863
        0.4550000000         0.7644715314         3.1253450475         1.3403916554         1.0563290744         0.0804496623         6.4078768235
        0.4600000000         0.8509944818         3.1730567618         1.3250776943         1.0563290744        -0.3184742830         7.1331208459
        0.4650000000         0.9189977716         3.2112564360         1.3378393285         1.0512253195         0.0139623381         7.7031312213
        0.4700000000         0.9670014878         3.2386115232         1.3301823480         1.0486734420        -0.1854996346         8.1055031706
        0.4750000000         0.9939609555         3.2541210809         1.4526940371         1.0690884617         3.0058919283         8.3314801247
        0.4800000000         0.9992894726         3.2571992708         1.4960835936         1.0741922166         4.1361764401         8.3761442886
        0.4850000000         0.9828710781         3.2477281912         1.4297230954         1.0869516039         2.4075060102         8.2385236640
        0.4900000000         0.9450630752         3.2260688699         1.4705603251         1.0997109912         3.4713031979         7.9216132025
        0.4950000000         0.8866882557         3.1930279851         1.5624440919         1.1099185011         5.8648468700         7.4323096281
        0.5000000000         0.8090169944         3.1497875664         1.4756649788         1.1226778884         3.6042778463         6.7812613486
        0.5050000000         0.7137396023         3.0978118352         1.4782173056         1.1405410306         3.6707651706         5.9826367202
        0.5100000000         0.6029295417         3.0387473051         1.5113975548         1.1533004179         4.5351003855         5.0538157114
        0.5150000000         0.4789983026         2.9743296673         1.4858742862         1.1686116826         3.8702271432         4.0150116726
        0.5200000000         0.3446429232         2.9063059283         1.5011882474         1.1992342121         4.2691510886         2.8888314463
        0.5250000000         0.2027872954         2.8363750531         1.5062929011         1.2145454769         4.4021257370         1.6997833884
        0.5300000000         0.0565185345         2.5000000000         1.4960835936         1.2298567416         4.1361764401         0.4737440079
        0.5350000000        -0.0909802039         2.1974333311         1.4731126519         1.2375123740         3.5377905221        -0.7626051671
        0.5400000000        -0.2364989970         2.1241624080         1.4731126519         1.2502717613         3.5377905221        -1.9823582430
        0.5450000000        -0.3768710104         2.0516243921         1.4246184417         1.2553755162         2.2745313618        -3.1589704964
        0.5500000000        -0.5090414158         1.9815212309         1.3888858657         1.2630311486         1.3437088226        -4.2668360510
        0.5550000000        -0.6301338712         1.9156353042         1.3608102703         1.2655830261         0.6123482561        -5.2818451217
        0.5600000000        -0.7375131174         1.8557816012         1.3429439823         1.2732386584         0.1469369865        -6.1819087010
        0.5650000000        -0.8288423269         1.8037415199         1.3276300211         1.2732386584        -0.2519869588        -6.9474392683
        0.5700000000        -0.9021339594         1.7611786669         1.3378393285         1.2732386584         0.0139623381        -7.5617770608
        0.5750000000        -0.9557930148         1.7295413226         1.1974613514         1.2655830261        -3.6428404944        -8.0115526293
        0.5800000000        -0.9886517447         1.7099614893         1.2612695229         1.2604792711        -1.9806573887        -8.2869777896
        0.5850000000        -0.9999950652         1.7031649606         1.2408509080         1.2502717613        -2.5125559825        -8.3820586360
        0.5900000000        -0.9895761186         1.7094083583         1.1744904097         1.2375123740        -4.2412264124        -8.2947259837
        0.5950000000        -0.9576216460         1.7284558542         1.1898043709         1.2273048642        -3.8423024671        -8.0268803986
        0.6000000000        -0.9048270525         1.7596005817         1.2127753126         1.2145454769        -3.2439165490        -7.5843508365
        0.6050000000        -0.8323412738         1.8017261289         1.1489671412         1.1915785797        -4.9060996547        -6.9767677915
        0.6100000000        -0.7417417727         1.8533956404         1.2000136783         1.1762673150        -3.5763531702        -6.2173537133
        0.6150000000        -0.6350002094         1.9129526197         1.1642811023         1.1584041728        -4.5071757093        -5.3226352555
        0.6200000000        -0.5144395338         1.9786188479         1.1591764486         1.1456447855        -4.6401503578        -4.3120836161
        0.6250000000        -0.3826834324         2.0485792829         1.1949090246         1.1277816433        -3.7093278186        -3.2076907984
        0.6300000000        -0.2425992308         2.1210490586         1.1642811023         1.1124703785        -4.5071757093        -2.0334910125
        0.6350000000        -0.0972354939         2.1943220556         1.1795950634         1.0997109912        -4.1082517640        -0.8150376336
        0.6400000000         0.0502443182         2.5000000000         1.1872520440         1.0818478490        -3.9087897913         0.4211528994
        0.6450000000         0.1966306946         2.8333816649         1.1923566977         1.0665365843        -3.7758151428         1.6481781453
        0.6500000000         0.3387379202         2.9033572462         1.2229846200         1.0588809519        -2.9779672521         2.8393351213
        0.6550000000         0.4734734044         2.9714962362         1.2740311571         1.0486734420        -1.6482207676         3.9687014231
        0.6600000000         0.5979049831         3.0361027526         1.3046590794         1.0359140547        -0.8503728769         5.0116993585
        0.6650000000         0.7093247296         3.0954307572         1.3480486360         1.0461215646         0.2799116350         5.9456308157
