% f=3.40Hz  n_cycles=5  N_total=294  dt=0.005000
% Amp=1.0000V  K_lin=8.382100
Time[s]              Vcmd[V]              Vc[V]                Vg[V]                Pot[V]               Omega[rad/s]         Omega_target[rad/s] 
        0.0000000000         0.0000000000         2.5000000000         1.3378393285         1.5258745269         0.0139623381         0.0000000000
        0.0050000000         0.1066111543         2.7899921246         1.3429439823         1.5411857916         0.1469369865         0.8936253563
        0.0100000000         0.2120071099         2.8408641202         1.3352870017         1.5309782818        -0.0525249861         1.7770647961
        0.0150000000         0.3149865197         2.8915306764         1.3608102703         1.5309782818         0.6123482561         2.6402485064
        0.0200000000         0.4143755810         2.9413849376         1.3403916554         1.5335301593         0.0804496623         3.4733375574
        0.0250000000         0.5090414158         2.9897933621         1.3429439823         1.5386339142         0.1469369865         4.2668360510
        0.0300000000         0.5979049831         3.0361027526         1.3403916554         1.5386339142         0.0804496623         5.0116993585
        0.0350000000         0.6799533787         3.0796496969         1.3454963091         1.5386339142         0.2134243108         5.6994372158
        0.0400000000         0.7542513807         3.1197726695         1.3965428462         1.5437376691         1.5431707953         6.3222104985
        0.0450000000         0.8199521093         3.1558268583         1.4629033445         1.5488414240         3.2718412252         6.8729205756
        0.0500000000         0.8763066800         3.1872014866         1.4067521537         1.5488414240         1.8091200922         7.3452902228
        0.0550000000         0.9226727399         3.2133390228         1.4424847297         1.5616008113         2.7399426314         7.7339351729
        0.0600000000         0.9585217890         3.2337552419         1.4858742862         1.5667045662         3.8702271432         8.0344254877
        0.0650000000         0.9834452050         3.2480587063         1.4475893834         1.5743601986         2.8729172798         8.2433360528
        0.0700000000         0.9971589003         3.2559679685         1.4884266131         1.5922233408         3.9367144675         8.3582856179
        0.0750000000         0.9995065604         3.2573247685         1.5011882474         1.6202939929         4.2691510886         8.3779639396
        0.0800000000         0.9904614257         3.2521017657         1.4960835936         1.6356052576         4.1361764401         8.3021467163
        0.0850000000         0.9701265965         3.2404038985         1.5165022085         1.6381571351         4.6680750340         8.1316981444
        0.0900000000         0.9387338577         3.2224632052         1.5139498816         1.6585721547         4.6015877097         7.8685610682
        0.0950000000         0.8966410368         3.1986277261         1.5037405742         1.6738834195         4.3356384128         7.5157348344
        0.1000000000         0.8443279255         3.1693457491         1.5241591891         1.6917465617         4.8675370066         7.0772411044
        0.1050000000         0.7823908106         3.1351470533         1.5165022085         1.7096097039         4.6680750340         6.5580780133
        0.1100000000         0.7115356772         3.0966228941         1.5139498816         1.7300247236         4.6015877097         5.9641631999
        0.1150000000         0.6325701619         3.0544062929         1.5445778039         1.7631991306         5.3994356004         5.3022663542
        0.1200000000         0.5463943467         3.0091538399         1.5216068622         1.7810622728         4.8010496824         4.5799320538
        0.1250000000         0.4539904997         2.9615297926         1.5343684965         1.7963735375         5.1334863035         3.8053937679
        0.1300000000         0.3564118787         2.9121928453         1.5292638428         1.8142366797         5.0005116551         2.9874800086
        0.1350000000         0.2547707257         2.8617856148         1.5139498816         1.8320998220         4.6015877097         2.1355136998
        0.1400000000         0.1502255891         2.8109266561         1.5113975548         1.8372035769         4.5351003855         1.2592059106
        0.1450000000         0.0439681183         2.5000000000         1.5113975548         1.8550667191         4.5351003855         0.3685451646
        0.1500000000        -0.0627905195         2.2114129306         1.4884266131         1.8703779838         3.9367144675        -0.5263164137
        0.1550000000        -0.1688334447         2.1584679363         1.4833219594         1.8856892486         3.8037398190        -1.4151788169
        0.1600000000        -0.2729519355         2.1055064361         1.4373800759         1.8984486359         2.6069679829        -2.2879104187
        0.1650000000        -0.3739592057         2.0531486038         1.4297230954         1.9188636556         2.4075060102        -3.1345634584
        0.1700000000        -0.4707039322         2.0020437752         1.3990951731         1.9214155330         1.6096581195        -3.9454874298
        0.1750000000        -0.5620833779         1.9528638931         1.3684672508         1.9290711654         0.8118102288        -4.7114390815
        0.1800000000        -0.6470559616         1.9062946351         1.3301823480         1.9214155330        -0.1854996346        -5.4236877755
        0.1850000000        -0.7246531302         1.8630239412         1.3148683868         1.9214155330        -0.5844235800        -6.0741150025
        0.1900000000        -0.7939903986         1.8237278113         1.2306416006         1.9137599006        -2.7785052794        -6.6553069205
        0.1950000000        -0.8542774317         1.7890535002         1.2714788303         1.9214155330        -1.7147080918        -7.1606388602
        0.2000000000        -0.9048270525         1.7596005817         1.2510602154         1.9137599006        -2.2466066856        -7.5843508365
        0.2050000000        -0.9450630752         1.7359007657         1.2153276394         1.8958967584        -3.1774292248        -7.9216132025
        0.2100000000        -0.9745268728         1.7183977567         1.2127753126         1.8882411261        -3.2439165490        -8.1685817004
        0.2150000000        -0.9928826046         1.7074287613         1.1974613514         1.8754817388        -3.6428404944        -8.3224412798
        0.2200000000        -0.9999210442         1.7032093741         1.1898043709         1.8576185965        -3.8423024671        -8.3814381846
        0.2250000000        -0.9955619646         1.7058234228         1.1872520440         1.8423073318        -3.9087897913        -8.3448999435
        0.2300000000        -0.9798550524         1.7152189143         1.1719380829         1.8346516994        -4.3077137366        -8.2132430346
        0.2350000000        -0.9529793415         1.7312105558         1.1617287755         1.8091329248        -4.5736630336        -7.9879681385
        0.2400000000        -0.9152411726         1.7534885558         1.1898043709         1.7989254150        -3.8423024671        -7.6716430330
        0.2450000000        -0.8670707012         1.7816327013         1.1719380829         1.7836141502        -4.3077137366        -7.2678733242
        0.2500000000        -0.8090169944         1.8151302109         1.1515194680         1.7631991306        -4.8396123305        -6.7812613486
        0.2550000000        -0.7417417727         1.8533956404         1.1489671412         1.7351284785        -4.9060996547        -6.2173537133
        0.2600000000        -0.6660118674         1.8957911870         1.1540717949         1.7274728461        -4.7731250062        -5.5825780740
        0.2650000000        -0.5826904797         1.9416460127         1.1438624875         1.7019540715        -5.0390743031        -4.8841698696
        0.2700000000        -0.4927273415         1.9902736088         1.1566241217         1.6968503166        -4.7066376820        -4.1300898496
        0.2750000000        -0.3971478906         2.0409866324         1.1693857560         1.6738834195        -4.3742010609        -3.3289333341
        0.2800000000        -0.2970415816         2.0931090184         1.1642811023         1.6509165224        -4.5071757093        -2.4898322409
        0.2850000000        -0.1935494681         2.1459854418         1.1693857560         1.6432608900        -4.3742010609        -1.6223509961
        0.2900000000        -0.0878511966         2.1989883869         1.1668334292         1.6279496252        -4.4406883851        -0.7363775146
        0.2950000000         0.0188484397         2.5000000000         1.1846997172         1.6177421154        -3.9752771155         0.1579895065
        0.3000000000         0.1253332336         2.7989586188         1.1744904097         1.5871195859        -4.2412264124         1.0505556971
        0.3050000000         0.2303894267         2.8498371101         1.2127753126         1.5871195859        -3.2439165490         1.9311472133
        0.3100000000         0.3328195445         2.9004052525         1.2485078886         1.5718083211        -2.3130940098         2.7897267041
        0.3150000000         0.4314560457         2.9500510662         1.2867927914         1.5616008113        -1.3157841464         3.6165077205
        0.3200000000         0.5251746300         2.9981369654         1.3429439823         1.5641526888         0.1469369865         4.4020662658
        0.3250000000         0.6129070537         3.0440071908         1.3480486360         1.5667045662         0.2799116350         5.1374482144
        0.3300000000         0.6936533058         3.0869977055         1.3225253674         1.5743601986        -0.3849616073         5.8142713747
        0.3350000000         0.7664930068         3.1264487803         1.3403916554         1.5667045662         0.0804496623         6.4248210324
        0.3400000000         0.8305958992         3.1617202864         1.3403916554         1.5641526888         0.0804496623         6.9621378866
        0.3450000000         0.8852313113         3.1922094073         1.3531532897         1.5667045662         0.4128862834         7.4200973747
        0.3500000000         0.9297764859         3.2173700860         1.4960835936         1.5743601986         4.1361764401         7.7934794824
        0.3550000000         0.9637236783         3.2367330983         1.4118568074         1.5820158310         1.9420947407         8.0780282438
        0.3600000000         0.9866859442         3.2499252589         1.4271707685         1.5896714634         2.3410186860         8.2705002529
        0.3650000000         0.9984015501         3.2566860394         1.5088452279         1.6024308506         4.4686130613         8.3687016332
        0.3700000000         0.9987369566         3.2568798951         1.4731126519         1.6151902379         3.5377905221         8.3715130440
        0.3750000000         0.9876883406         3.2505029189         1.4807696325         1.6381571351         3.7372524948         8.2789024397
        0.3800000000         0.9653816388         3.2376830355         1.5318161696         1.6560202773         5.0669989793         8.0919254349
        0.3850000000         0.9320711125         3.2186737128         1.5062929011         1.6764352970         4.4021257370         7.8127132717
        0.3900000000         0.8881364488         3.1938419350         1.5216068622         1.6942984392         4.8010496824         7.4444485276
        0.3950000000         0.8340784336         3.1636517917         1.5292638428         1.7070578265         5.0005116551         6.9913288384
        0.4000000000         0.7705132428         3.1286453753         1.5062929011         1.7198172138         4.4021257370         6.4585190523
        0.4050000000         0.6981654190         3.0894227140         1.5241591891         1.7478878658         4.8675370066         5.8520923585
        0.4100000000         0.6178596131         3.0466222530         1.5318161696         1.7657510080         5.0669989793         5.1789610629
        0.4150000000         0.5305111843         3.0009030178         1.5037405742         1.7734066404         4.3356384128         4.4467977980
        0.4200000000         0.4371157667         2.9529291670         1.5343684965         1.7938216601         5.1334863035         3.6639480676
        0.4250000000         0.3387379202         2.9033572462         1.5190545354         1.8218923121         4.7345623582         2.8393351213
        0.4300000000         0.2364989970         2.8528261387         1.5062929011         1.8346516994         4.4021257370         1.9823582430
        0.4350000000         0.1315643591         2.8019494964         1.5062929011         1.8499629642         4.4021257370         1.1027856143
        0.4400000000         0.0251300954         2.5000000000         1.5037405742         1.8703779838         4.3356384128         0.2106429730
        0.4450000000        -0.0815906116         2.2020972610         1.4858742862         1.8805854937         3.8702271432        -0.6839006652
        0.4500000000        -0.1873813146         2.1491057335         1.4884266131         1.8958967584         3.9367144675        -1.5706489170
        0.4550000000        -0.2910361668         2.0962047976         1.4526940371         1.9086561457         3.0058919283        -2.4394942540
        0.4600000000        -0.3913736668         2.0440201584         1.4195137880         1.9086561457         2.1415567133        -3.2805332128
        0.4650000000        -0.4872501257         1.9932056793         1.4041998268         1.9239674105         1.7426327680        -4.0841792788
        0.4700000000        -0.5775727034         1.9444364423         1.3684672508         1.9341749203         0.8118102288        -4.8412721574
        0.4750000000        -0.6613118653         1.8983994355         1.3327346748         1.9265192879        -0.1190123104        -5.5431821863
        0.4800000000        -0.7375131174         1.8557816012         1.2791358108         1.9290711654        -1.5152461191        -6.1819087010
        0.4850000000        -0.8053078857         1.8172551568         1.2638218497         1.9239674105        -1.9141700645        -6.7501712288
        0.4900000000        -0.8639234172         1.7834603682         1.2612695229         1.9137599006        -1.9806573887        -7.2414924753
        0.4950000000        -0.9126915874         1.7549863177         1.2485078886         1.9137599006        -2.3130940098        -7.6502721548
        0.5000000000        -0.9510565163         1.7323506234         1.2102229857         1.8958967584        -3.3104038732        -7.9718508252
        0.5050000000        -0.9785809043         1.7159794660         1.2382985811         1.8933448810        -2.5790433068        -8.2025629981
        0.5100000000        -0.9949510170         1.7061895669         1.1795950634         1.8729298613        -4.1082517640        -8.3397789194
        0.5150000000        -0.9999802609         1.7031738434         1.2076706589         1.8652742289        -3.3768911975        -8.3819345445
        0.5200000000        -0.9936113105         1.7069922638         1.1770427366         1.8372035769        -4.1747390882        -8.3285493659
        0.5250000000        -0.9759167619         1.7175689412         1.1617287755         1.8295479445        -4.5736630336        -8.1802318902
        0.5300000000        -0.9470983050         1.7346958061         1.1744904097         1.8116848023        -4.2412264124        -7.9386727023
        0.5350000000        -0.9074844245         1.7580424288         1.1617287755         1.7963735375        -4.5736630336        -7.6066251949
        0.5400000000        -0.8575266562         1.7871708822         1.1693857560         1.7836141502        -4.3742010609        -7.1878741849
        0.5450000000        -0.7977944395         1.8215540838         1.1566241217         1.7683028855        -4.7066376820        -6.6871927717
        0.5500000000        -0.7289686274         1.8605958864         1.1642811023         1.7504397433        -4.5071757093        -6.1102879319
        0.5550000000        -0.6518337253         1.9036512988         1.1591764486         1.7300247236        -4.6401503578        -5.4637354688
        0.5600000000        -0.5672689491         1.9500455230         1.1642811023         1.7121615814        -4.5071757093        -4.7549050585
        0.5650000000        -0.4762382037         1.9990909015         1.1438624875         1.6866428068        -5.0390743031        -3.9918762470
        0.5700000000        -0.3797790955         2.0501012795         1.1617287755         1.6662277871        -4.5736630336        -3.1833463566
        0.5750000000        -0.2789911060         2.1024036366         1.1744904097         1.6636759097        -4.2412264124        -2.3385313499
        0.5800000000        -0.1750230590         2.1553471046         1.1770427366         1.6509165224        -4.1747390882        -1.4670607826
        0.5850000000        -0.0690600257         2.2083096495         1.1719380829         1.6356052576        -4.3077137366        -0.5788680415
        0.5900000000         0.0376901827         2.5000000000         1.1898043709         1.6126383605        -3.8423024671         0.3159228802
        0.5950000000         0.1440107826         2.8079336307         1.1770427366         1.5896714634        -4.1747390882         1.2071127804
        0.6000000000         0.2486898872         2.8588005134         1.2178799663         1.5871195859        -3.1109419006         2.0845435032
        0.6050000000         0.3505343202         2.9092511707         1.2459555617         1.5743601986        -2.3795813341         2.9382137253
        0.6100000000         0.4483832161         2.9586686627         1.2970020988         1.5641526888        -1.0498348495         3.7583929556
        0.6150000000         0.5411212521         3.0064115901         1.3454963091         1.5641526888         0.2134243108         4.5357324475
        0.6200000000         0.6276913613         3.0518219394         1.3454963091         1.5641526888         0.2134243108         5.2613717595
        0.6250000000         0.7071067812         3.0942354410         1.3199730405         1.5641526888        -0.4514489315         5.9270397506
        0.6300000000         0.7784623016         3.1329946383         1.3403916554         1.5667045662         0.0804496623         6.5251488580
        0.6350000000         0.8409445823         3.1674646396         1.3429439823         1.5692564437         0.1469369865         7.0488815833
        0.6400000000         0.8938414242         3.1970511969         1.3863335388         1.5743601986         1.2772214984         7.4922682014
        0.6450000000         0.9365498867         3.2212203567         1.4807696325         1.5692564437         3.7372524948         7.8502548057
        0.6500000000         0.9685831611         3.2395184981         1.4041998268         1.5794639535         1.7426327680         8.1187609149
        0.6550000000         0.9895761186         3.2515912101         1.4501417102         1.6024308506         2.9394046041         8.2947259837
        0.6600000000         0.9992894726         3.2571992708         1.5190545354         1.6177421154         4.7345623582         8.3761442886
        0.6650000000         0.9976125064         3.2562300602         1.4680079982         1.6202939929         3.4048158736         8.3620877896
