% f=1.80Hz  n_cycles=5  N_total=555  dt=0.005000
% Amp=0.4500V  K_lin=8.298800
Time[s]              Vcmd[V]              Vc[V]                Vg[V]                Pot[V]               Omega[rad/s]         Omega_target[rad/s] 
        0.0000000000         0.0000000000         2.5000000000         0.6206354819         1.6942984392         0.2848981843         0.0000000000
        0.0050000000         0.0254333405         2.5000000000         0.6155308282         1.6968503166         0.1519235359         0.2110662063
        0.0100000000         0.0507853732         2.5000000000         0.5210947345         1.6968503166        -2.3081074605         0.4214576551
        0.0150000000         0.0759750501         2.7820510215         0.6104261745         1.6968503166         0.0189488874         0.6305017459
        0.0200000000         0.1009218424         2.7935221744         0.6155308282         1.6942984392         0.1519235359         0.8375301859
        0.0250000000         0.1255459977         2.8048960273         0.6206354819         1.6994021941         0.2848981843         1.0418811259
        0.0300000000         0.1497687950         2.8161346550         0.5593796373         1.7019540715        -1.3107975971         1.2429012762
        0.0350000000         0.1735127965         2.8272000690         0.6104261745         1.6942984392         0.0189488874         1.4399479958
        0.0400000000         0.1967020950         2.8380543565         0.6078738476         1.6891946843        -0.0475384368         1.6323913459
        0.0450000000         0.2192625566         2.8486598251         0.6078738476         1.6866428068        -0.0475384368         1.8196161045
        0.0500000000         0.2411220577         2.8589791551         0.6129785013         1.6968503166         0.0854362116         2.0010237328
        0.0550000000         0.2622107159         2.8689755574         0.6155308282         1.7019540715         0.1519235359         2.1760342887
        0.0600000000         0.2824611126         2.8786129369         0.6180831550         1.7070578265         0.2184108601         2.3440882811
        0.0650000000         0.3018085094         2.8878560601         0.6129785013         1.7096097039         0.0854362116         2.5046484582
        0.0700000000         0.3201910547         2.8966707261         0.6129785013         1.7121615814         0.0854362116         2.6572015251
        0.0750000000         0.3375499813         2.9050239391         0.6053215207         1.7096097039        -0.1140257610         2.8012597851
        0.0800000000         0.3538297945         2.9128840822         0.6104261745         1.7249209687         0.0189488874         2.9363626983
        0.0850000000         0.3689784492         2.9202210898         0.5695889448         1.7351284785        -1.0448483002         3.0620783542
        0.0900000000         0.3829475168         2.9270066168         0.6206354819         1.7376803560         0.2848981843         3.1780048525
        0.0950000000         0.3956923396         2.9332142046         0.6129785013         1.7453359884         0.0854362116         3.2837715878
        0.1000000000         0.4071721736         2.9388194390         0.6078738476         1.7478878658        -0.0475384368         3.3790404344
        0.1050000000         0.4173503190         2.9438001017         0.6104261745         1.7580953756         0.0189488874         3.4635068273
        0.1100000000         0.4261942372         2.9481363101         0.6180831550         1.7734066404         0.2184108601         3.5369007361
        0.1150000000         0.4336756552         2.9518106461         0.6180831550         1.7810622728         0.2184108601         3.5989875276
        0.1200000000         0.4397706556         2.9548082707         0.6206354819         1.7912697826         0.2848981843         3.6495687167
        0.1250000000         0.4444597533         2.9571170232         0.6180831550         1.7938216601         0.2184108601         3.6884826004
        0.1300000000         0.4477279576         2.9587275041         0.6129785013         1.8040291699         0.0854362116         3.7156047749
        0.1350000000         0.4495648206         2.9596331393         0.6129785013         1.8116848023         0.0854362116         3.7308485332
        0.1400000000         0.4499644699         2.9598302256         0.6104261745         1.8218923121         0.0189488874         3.7341651427
        0.1450000000         0.4489256279         2.9593179566         0.6206354819         1.8295479445         0.2848981843         3.7255440005
        0.1500000000         0.4464516156         2.9580984280         0.6129785013         1.8346516994         0.0854362116         3.7050126675
        0.1550000000         0.4425503422         2.9561766233         0.6206354819         1.8525148416         0.2848981843         3.6726367802
        0.1600000000         0.4372342798         2.9535603791         0.6155308282         1.8601704740         0.1519235359         3.6285198413
        0.1650000000         0.4305204232         2.9502603313         0.6129785013         1.8678261064         0.0854362116         3.5728028881
        0.1700000000         0.4224302359         2.9462898421         0.6129785013         1.8780336162         0.0854362116         3.5056640421
        0.1750000000         0.4129895816         2.9416649098         0.5951122133         1.8882411261        -0.3799750580         3.4273179394
        0.1800000000         0.4022286409         2.9364040631         0.6027691939         1.8933448810        -0.1805130853         3.3380150448
        0.1850000000         0.3901818155         2.9305282392         0.6129785013         1.9112080232         0.0854362116         3.2380408507
        0.1900000000         0.3768876180         2.9240606503         0.5874552328         1.9188636556        -0.5794370306         3.1277149644
        0.1950000000         0.3623885486         2.9170266384         0.6078738476         1.9265192879        -0.0475384368         3.0073900869
        0.2000000000         0.3467309592         2.9094535206         0.6180831550         1.9494861851         0.2184108601         2.8774508846
        0.2050000000         0.3299649058         2.9013704273         0.6129785013         1.9545899400         0.0854362116         2.7383127603
        0.2100000000         0.3121439876         2.8928081349         0.6053215207         1.9647974498        -0.1140257610         2.5904205244
        0.2150000000         0.2933251764         2.8837988943         0.6078738476         1.9699012047        -0.0475384368         2.4342469738
        0.2200000000         0.2735686340         2.8743762583         0.6206354819         1.9928681019         0.2848981843         2.2702913795
        0.2250000000         0.2529375200         2.8645749081         0.6078738476         1.9903162244        -0.0475384368         2.0990778913
        0.2300000000         0.2314977902         2.8544304812         0.6129785013         2.0056274892         0.0854362116         1.9211538613
        0.2350000000         0.2093179851         2.8439794013         0.6155308282         2.0158349990         0.1519235359         1.7370880950
        0.2400000000         0.1864690114         2.8332587135         0.6078738476         2.0209387539        -0.0475384368         1.5474690322
        0.2450000000         0.1630239150         2.8223059220         0.5797982522         2.0362500187        -0.7788990033         1.3529028659
        0.2500000000         0.1390576475         2.8111588358         0.6155308282         2.0439056511         0.1519235359         1.1540116048
        0.2550000000         0.1146468266         2.7998554187         0.6206354819         2.0617687933         0.2848981843         0.9514310842
        0.2600000000         0.0898694912         2.7884336478         0.6206354819         2.0668725482         0.2848981843         0.7458089338
        0.2650000000         0.0648048521         2.7769313779         0.6129785013         2.0719763031         0.0854362116         0.5378025070
        0.2700000000         0.0395330384         2.5000000000         0.6129785013         2.0796319355         0.0854362116         0.3280767795
        0.2750000000         0.0141348416         2.5000000000         0.6180831550         2.0974950777         0.2184108601         0.1173022233
        0.2800000000        -0.0113085429         2.5000000000         0.6129785013         2.0974950777         0.0854362116        -0.0938473362
        0.2850000000        -0.0367157752         2.5000000000         0.6078738476         2.0974950777        -0.0475384368        -0.3046968753
        0.2900000000        -0.0620056308         2.1956041098         0.6155308282         2.1102544650         0.1519235359        -0.5145723290
        0.2950000000        -0.0870972606         2.1832723910         0.6002168670         2.1102544650        -0.2470004095        -0.7228027465
        0.3000000000        -0.1119104492         2.1710250546         0.6129785013         2.1179100974         0.0854362116        -0.9287224360
        0.3050000000        -0.1363658713         2.1589025986         0.6129785013         2.1179100974         0.0854362116        -1.1316730930
        0.3100000000        -0.1603853454         2.1469456312         0.6129785013         2.1153582199         0.0854362116        -1.3310059046
        0.3150000000        -0.1838920836         2.1351947278         0.6206354819         2.1230138523         0.2848981843        -1.5260836236
        0.3200000000        -0.2068109373         2.1236902793         0.6206354819         2.1255657297         0.2848981843        -1.7162826063
        0.3250000000        -0.2290686371         2.1124723348         0.6206354819         2.1255657297         0.2848981843        -1.9009948055
        0.3300000000        -0.2505940274         2.1015804368         0.6206354819         2.1230138523         0.2848981843        -2.0796297148
        0.3350000000        -0.2713182938         2.0910534520         0.6155308282         2.1153582199         0.1519235359        -2.2516162563
        0.3400000000        -0.2911751827         2.0809293966         0.6129785013         2.1077025875         0.0854362116        -2.4164046062
        0.3450000000        -0.3101012138         2.0712452588         0.6180831550         2.1128063424         0.2184108601        -2.5734679529
        0.3500000000        -0.3280358823         2.0620368185         0.5542749836         2.1025988326        -1.4437722456        -2.7223041804
        0.3550000000        -0.3449218531         2.0533384662         0.6129785013         2.0974950777         0.0854362116        -2.8624374742
        0.3600000000        -0.3607051432         2.0451830227         0.6129785013         2.0847356904         0.0854362116        -2.9934198423
        0.3650000000        -0.3753352951         2.0376015608         0.6206354819         2.0847356904         0.2848981843        -3.1148325472
        0.3700000000        -0.3887655377         2.0306232309         0.6104261745         2.0770800580         0.0189488874        -3.2262874446
        0.3750000000        -0.4009529359         2.0242750933         0.6053215207         2.0541131609        -0.1140257610        -3.3274282243
        0.3800000000        -0.4118585277         2.0185819574         0.6104261745         2.0541131609         0.0189488874        -3.4179315495
        0.3850000000        -0.4214474490         2.0135662306         0.6104261745         2.0439056511         0.0189488874        -3.4975080901
        0.3900000000        -0.4296890451         2.0092477794         0.6104261745         2.0362500187         0.0189488874        -3.5659034478
        0.3950000000        -0.4365569684         2.0056438034         0.6104261745         2.0260425088         0.0189488874        -3.6228989695
        0.4000000000        -0.4420292628         2.0027687241         0.6129785013         2.0183868765         0.0854362116        -3.6683124464
        0.4050000000        -0.4460884340         2.0006340909         0.6053215207         2.0056274892        -0.1140257610        -3.7019986959
        0.4100000000        -0.4487215051         1.9992485043         0.6180831550         2.0030756117         0.2184108601        -3.7238500267
        0.4150000000        -0.4499200586         1.9986175586         0.6155308282         1.9877643470         0.1519235359        -3.7337965821
        0.4200000000        -0.4496802627         1.9987438045         0.6078738476         1.9699012047        -0.0475384368        -3.7318065640
        0.4250000000        -0.4480028841         1.9996267314         0.6078738476         1.9622455724        -0.0475384368        -3.7178863343
        0.4300000000        -0.4448932851         2.0012627712         0.6129785013         1.9571418174         0.0854362116        -3.6920803947
        0.4350000000        -0.4403614069         2.0036453224         0.6206354819         1.9545899400         0.2848981843        -3.6544712440
        0.4400000000        -0.4344217375         2.0067647941         0.6027691939         1.9367267978        -0.1805130853        -3.6051791150
        0.4450000000        -0.4270932652         2.0106086702         0.6104261745         1.9265192879         0.0189488874        -3.5443615896
        0.4500000000        -0.4183994186         2.0151615918         0.6129785013         1.9137599006         0.0854362116        -3.4722130955
        0.4550000000        -0.4083679910         2.0204054572         0.5849029059         1.9035523908        -0.6459243549        -3.3889642841
        0.4600000000        -0.3970310519         2.0263195384         0.6053215207         1.8933448810        -0.1140257610        -3.2948812935
        0.4650000000        -0.3844248443         2.0328806110         0.6180831550         1.8907930035         0.2184108601        -3.1902648976
        0.4700000000        -0.3705896689         2.0400630982         0.6129785013         1.8703779838         0.0854362116        -3.0754495445
        0.4750000000        -0.3555697556         2.0478392247         0.6078738476         1.8601704740        -0.0475384368        -2.9508022875
        0.4800000000        -0.3394131213         2.0561791803         0.6129785013         1.8525148416         0.0854362116        -2.8167216113
        0.4850000000        -0.3221714174         2.0650512899         0.6206354819         1.8474110867         0.2848981843        -2.6736361584
        0.4900000000        -0.3038997637         2.0744221895         0.6104261745         1.8295479445         0.0189488874        -2.5220033586
        0.4950000000        -0.2846565729         2.0842570054         0.6129785013         1.8218923121         0.0854362116        -2.3623079669
        0.5000000000        -0.2645033635         2.0945195349         0.6129785013         1.8116848023         0.0854362116        -2.1950605133
        0.5050000000        -0.2435045635         2.1051724271         0.6104261745         1.7989254150         0.0189488874        -2.0207956712
        0.5100000000        -0.2217273037         2.1161773627         0.6053215207         1.7963735375        -0.1140257610        -1.8400705479
        0.5150000000        -0.1992412040         2.1274952306         0.6206354819         1.7861660277         0.2848981843        -1.6534629035
        0.5200000000        -0.1761181501         2.1390863008         0.6129785013         1.7708547629         0.0854362116        -1.4615693039
        0.5250000000        -0.1524320641         2.1509103924         0.6078738476         1.7580953756        -0.0475384368        -1.2650032136
        0.5300000000        -0.1282586681         2.1629270357         0.6027691939         1.7555434982        -0.1805130853        -1.0643930349
        0.5350000000        -0.1036752420         2.1750956280         0.6180831550         1.7504397433         0.2184108601        -0.8603800983
        0.5400000000        -0.0787603765         2.1873755821         0.6129785013         1.7427841109         0.0854362116        -0.6536166128
        0.5450000000        -0.0535937220         2.5000000000         0.6053215207         1.7223690912        -0.1140257610        -0.4447635805
        0.5500000000        -0.0282557338         2.5000000000         0.6078738476         1.7172653363        -0.0475384368        -0.2344886836
        0.5550000000        -0.0028274148         2.5000000000         0.6129785013         1.7172653363         0.0854362116        -0.0234641498
        0.5600000000         0.0226099432         2.5000000000         0.6155308282         1.7096097039         0.1519235359         0.1876353965
        0.5650000000         0.0479750194         2.5000000000         0.6129785013         1.7045059490         0.0854362116         0.3981350912
        0.5700000000         0.0731867243         2.7807720844         0.6155308282         1.7019540715         0.1519235359         0.6073619879
        0.5750000000         0.0981644586         2.7922517145         0.6053215207         1.6917465617        -0.1140257610         0.8146472093
        0.5800000000         0.1228283710         2.8036382490         0.6129785013         1.6994021941         0.0854362116         1.0193280851
        0.5850000000         0.1470996133         2.8148937777         0.6155308282         1.7045059490         0.1519235359         1.2207502712
        0.5900000000         0.1709005930         2.8259803125         0.6180831550         1.7045059490         0.2184108601         1.4182698411
        0.5950000000         0.1941552206         2.8368599252         0.6078738476         1.6942984392        -0.0475384368         1.6112553444
        0.6000000000         0.2167891533         2.8474948914         0.5695889448         1.6994021941        -1.0448483002         1.7990898258
        0.6050000000         0.2387300329         2.8578478424         0.6104261745         1.6968503166         0.0189488874         1.9811727973
        0.6100000000         0.2599077165         2.8678819222         0.6104261745         1.6994021941         0.0189488874         2.1569221580
        0.6150000000         0.2802545012         2.8775609503         0.6129785013         1.6994021941         0.0854362116         2.3257760547
        0.6200000000         0.2997053403         2.8868495891         0.6129785013         1.7045059490         0.0854362116         2.4871946785
        0.6250000000         0.3181980515         2.8957135143         0.6129785013         1.7096097039         0.0854362116         2.6406619901
        0.6300000000         0.3356735154         2.9041195879         0.6155308282         1.7223690912         0.1519235359         2.7856873699
        0.6350000000         0.3520758648         2.9120360312         0.5823505790         1.7274728461        -0.7124116791         2.9218071865
        0.6400000000         0.3673526628         2.9194325976         0.6129785013         1.7249209687         0.0854362116         3.0485862782
        0.6450000000         0.3814550712         2.9262807427         0.6078738476         1.7274728461        -0.0475384368         3.1656193452
        0.6500000000         0.3943380060         2.9325537903         0.5925598865         1.7351284785        -0.4464623822         3.2725322444
        0.6550000000         0.4059602817         2.9382270915         0.5823505790         1.7402322334        -0.7124116791         3.3689831859
        0.6600000000         0.4162847431         2.9432781768         0.6129785013         1.7580953756         0.0854362116         3.4546638258
        0.6650000000         0.4252783838         2.9476868976         0.6078738476         1.7580953756        -0.0475384368         3.5293002517
