% f=1.40Hz  n_cycles=5  N_total=714  dt=0.005000
% Amp=1.0000V  K_lin=7.165500
Time[s]              Vcmd[V]              Vc[V]                Vg[V]                Pot[V]               Omega[rad/s]         Omega_target[rad/s] 
        0.0000000000         0.0000000000         2.5000000000         1.3378393285         2.2455039703         0.0056514226         0.0000000000
        0.0050000000         0.0439681183         2.7540369024         1.3352870017         2.2455039703        -0.0608359017         0.3150535518
        0.0100000000         0.0878511966         2.7713219356         1.3352870017         2.2455039703        -0.0608359017         0.6294977489
        0.0150000000         0.1315643591         2.7886416331         1.3429439823         2.2531596027         0.1386260710         0.9427244151
        0.0200000000         0.1750230590         2.8059628165         1.3454963091         2.2506077252         0.2051133952         1.2541277291
        0.0250000000         0.2181432414         2.8232517100         1.3378393285         2.2455039703         0.0056514226         1.5631053962
        0.0300000000         0.2608415063         2.8404739902         1.3352870017         2.2455039703        -0.0608359017         1.8690598133
        0.0350000000         0.3030352696         2.8575948408         1.3378393285         2.2455039703         0.0056514226         2.1713992246
        0.0400000000         0.3446429232         2.8745790138         1.3378393285         2.2404002154         0.0056514226         2.4695388660
        0.0450000000         0.3855839923         2.8913908961         1.3480486360         2.2404002154         0.2716007195         2.7629020967
        0.0500000000         0.4257792916         2.9079945826         1.4169614611         2.2480558478         2.0667584736         3.0509215137
        0.0550000000         0.4651510781         2.9243539558         1.3812288851         2.2557114802         1.1359359344         3.3330400500
        0.0600000000         0.5036232016         2.9404327718         1.3965428462         2.2557114802         1.5348598798         3.6087120513
        0.0650000000         0.5411212521         2.9561947532         1.4067521537         2.2608152351         1.8008091767         3.8774043321
        0.0700000000         0.5775727034         2.9716036889         1.4016475000         2.2735746224         1.6678345282         4.1385972064
        0.0750000000         0.6129070537         2.9866235401         1.4067521537         2.2812302547         1.8008091767         4.3917854930
        0.0800000000         0.6470559616         3.0012185527         1.4297230954         2.2888858871         2.3991950947         4.6364794926
        0.0850000000         0.6799533787         3.0153533767         1.4220661148         2.2990933970         2.1997331220         4.8722059352
        0.0900000000         0.7115356772         3.0289931902         1.4297230954         2.2990933970         2.3991950947         5.0985088950
        0.0950000000         0.7417417727         3.0421038295         1.4399324028         2.3144046617         2.6651443916         5.3149506726
        0.1000000000         0.7705132428         3.0546519233         1.4373800759         2.3195084166         2.5986570674         5.5211126411
        0.1050000000         0.7977944395         3.0666050308         1.4450370565         2.3373715588         2.7981190401         5.7165960565
        0.1100000000         0.8235325976         3.0779317824         1.4577986908         2.3501309461         3.1305556612         5.9010228283
        0.1150000000         0.8476779361         3.0886020225         1.4577986908         2.3654422109         3.1305556612         6.0740362510
        0.1200000000         0.8701837547         3.0985869523         1.4731126519         2.3833053531         3.5294796066         6.2353016941
        0.1250000000         0.8910065242         3.1078592720         1.4629033445         2.3858572306         3.2635303097         6.3845072491
        0.1300000000         0.9101059707         3.1163933209         1.4782173056         2.3935128629         3.6624542550         6.5213643329
        0.1350000000         0.9274451533         3.1241652135         1.4654556714         2.4062722502         3.3300176339         6.6456082462
        0.1400000000         0.9429905359         3.1311529703         1.4884266131         2.4343429023         3.9284035519         6.7569986849
        0.1450000000         0.9567120516         3.1373366416         1.4909789399         2.4496541670         3.9948908762         6.8553202054
        0.1500000000         0.9685831611         3.1426984233         1.4909789399         2.4573097994         3.9948908762         6.9403826411
        0.1550000000         0.9785809043         3.1472227621         1.4807696325         2.4726210642         3.7289415793         7.0120214699
        0.1600000000         0.9866859442         3.1508964496         1.5062929011         2.4930360838         4.3938148215         7.0700981332
        0.1650000000         0.9928826046         3.1537087035         1.4960835936         2.5108992261         4.1278655246         7.1145003030
        0.1700000000         0.9971589003         3.1556512350         1.5037405742         2.5211067359         4.3273274973         7.1451420998
        0.1750000000         0.9995065604         3.1567183006         1.4960835936         2.5313142457         4.1278655246         7.1619642583
        0.1800000000         0.9999210442         3.1569067393         1.5062929011         2.5491773879         4.3938148215         7.1649342422
        0.1850000000         0.9984015501         3.1562159925         1.5113975548         2.5670405302         4.5267894700         7.1540463073
        0.1900000000         0.9949510170         3.1546481073         1.5139498816         2.5900074273         4.5932767942         7.1293215122
        0.1950000000         0.9895761186         3.1522077241         1.5241591891         2.6155262019         4.8592260911         7.0908076778
        0.2000000000         0.9822872507         3.1489020461         1.5267115159         2.6282855892         4.9257134153         7.0385792951
        0.2050000000         0.9730985110         3.1447407945         1.5292638428         2.6461487314         4.9922007396         6.9727373804
        0.2100000000         0.9620276716         3.1397361471         1.5394731502         2.6844268933         5.2581500365         6.8934092808
        0.2150000000         0.9490961450         3.1339026631         1.5394731502         2.6971862806         5.2581500365         6.8007484269
        0.2200000000         0.9343289425         3.1272571941         1.5267115159         2.7022900355         4.9257134153         6.6949340372
        0.2250000000         0.9177546257         3.1198187840         1.5343684965         2.7150494228         5.1251753880         6.5761707703
        0.2300000000         0.8994052516         3.1116085569         1.5292638428         2.7456719523         4.9922007396         6.4446883301
        0.2350000000         0.8793163102         3.1026495973         1.5471301308         2.7635350945         5.4576120091         6.3007410207
        0.2400000000         0.8575266562         3.0929668214         1.5420254771         2.7865019916         5.3246373607         6.1446072550
        0.2450000000         0.8340784336         3.0825868435         1.5394731502         2.8018132564         5.2581500365         5.9765890161
        0.2500000000         0.8090169944         3.0715378373         1.5369208233         2.8273320310         5.1916627122         5.7970112732
        0.2550000000         0.7823908106         3.0598493944         1.5369208233         2.8426432957         5.1916627122         5.6062213532
        0.2600000000         0.7542513807         3.0475523816         1.5394731502         2.8605064379         5.2581500365         5.4045882687
        0.2650000000         0.7246531302         3.0346787980         1.5420254771         2.8834733351         5.3246373607         5.1925020044
        0.2700000000         0.6936533058         3.0212616332         1.5445778039         2.9115439871         5.3911246849         4.9703727628
        0.2750000000         0.6613118653         3.0073347280         1.5445778039         2.9370627617         5.3911246849         4.7386301710
        0.2800000000         0.6276913613         2.9929326384         1.5394731502         2.9523740265         5.2581500365         4.4977224493
        0.2850000000         0.5928568202         2.9780905036         1.5445778039         2.9727890461         5.3911246849         4.2481155449
        0.2900000000         0.5568756165         2.9628439194         1.5394731502         2.9932040658         5.2581500365         3.9902922299
        0.2950000000         0.5198173426         2.9472288168         1.5471301308         3.0136190855         5.4576120091         3.7247511685
        0.3000000000         0.4817536741         2.9312813465         1.5241591891         3.0340341051         4.8592260911         3.4520059518
        0.3050000000         0.4427582310         2.9150377699         1.5496824576         3.0518972474         5.5240993334         3.1725841045
        0.3100000000         0.4029064357         2.8985343572         1.5241591891         3.0672085121         4.8592260911         2.8870260651
        0.3150000000         0.3622753667         2.8818072908         1.5343684965         3.0927272867         5.1251753880         2.5958841401
        0.3200000000         0.3209436098         2.8648925771         1.5113975548         3.1029347965         4.5267894700         2.2997214361
        0.3250000000         0.2789911060         2.8478259636         1.5267115159         3.1259016937         4.9257134153         1.9991107703
        0.3300000000         0.2364989970         2.8306428634         1.5190545354         3.1488685908         4.7262514427         1.6946335632
        0.3350000000         0.1935494681         2.8133782856         1.5113975548         3.1667317330         4.5267894700         1.3868787133
        0.3400000000         0.1502255891         2.7960667717         1.4986359205         3.1820429978         4.1943528488         1.0764414588
        0.3450000000         0.1066111543         2.7787423388         1.5011882474         3.1999061400         4.2608401731         0.7639222260
        0.3500000000         0.0627905195         2.7614384271         1.4986359205         3.2126655273         4.1943528488         0.4499254677
        0.3550000000         0.0188484397         2.7441878534         1.4858742862         3.2279767920         3.8619162277         0.1350584948
        0.3600000000        -0.0251300954         2.2496043062         1.4909789399         3.2483918117         3.9948908762        -0.1800696989
        0.3650000000        -0.0690600257         2.2314072948         1.4858742862         3.2637030765         3.8619162277        -0.4948496143
        0.3700000000        -0.1128563849         2.2131686853         1.4526940371         3.2815662187         2.9975810128        -0.8086724258
        0.3750000000        -0.1564344650         2.1949233660         1.4169614611         3.2841180961         2.0667584736        -1.1209311592
        0.3800000000        -0.1997099805         2.1767068036         1.3812288851         3.2866699736         1.1359359344        -1.4310218654
        0.3850000000        -0.2425992308         2.1585549882         1.3429439823         3.2892218510         0.1386260710        -1.7383447883
        0.3900000000        -0.2850192625         2.1405043736         1.3174207137         3.2968774834        -0.5262471713        -2.0423055252
        0.3950000000        -0.3268880297         2.1225918120         1.3480486360         3.3019812383         0.2716007195        -2.3423161765
        0.4000000000        -0.3681245527         2.1048544831         1.3403916554         3.2968774834         0.0721387468        -2.6377964823
        0.4050000000        -0.4086490747         2.0873298170         1.3352870017         3.2943256060        -0.0608359017        -2.9281749450
        0.4100000000        -0.4483832161         2.0700554122         1.3250776943         3.2866699736        -0.3267851986        -3.2128899349
        0.4150000000        -0.4872501257         2.0530689461         1.2408509080         3.2815662187        -2.5208668981        -3.4913907759
        0.4200000000        -0.5251746300         2.0364080808         1.2816881377         3.2815662187        -1.4570697104        -3.7631388110
        0.4250000000        -0.5620833779         2.0201103618         1.2689265034         3.2611511990        -1.7895063316        -4.0276084440
        0.4300000000        -0.5979049831         2.0042131116         1.2536125423         3.2611511990        -2.1884302769        -4.2842881561
        0.4350000000        -0.6325701619         1.9887533176         1.2485078886         3.2509436892        -2.3214049254        -4.5326814952
        0.4400000000        -0.6660118674         1.9737675140         1.2434032349         3.2458399342        -2.4543795738        -4.7723080361
        0.4450000000        -0.6981654190         1.9592916597         1.2280892737         3.2356324244        -2.8533035192        -5.0027043098
        0.4500000000        -0.7289686274         1.9453610110         1.2255369469         3.2254249146        -2.9197908434        -5.2234246998
        0.4550000000        -0.7583619153         1.9320099914         1.2382985811         3.2177692822        -2.5873542223        -5.4340423040
        0.4600000000        -0.7862884321         1.9192720578         1.2204322931         3.2101136498        -3.0527654919        -5.6341497605
        0.4650000000        -0.8126941644         1.9071795646         1.2178799663         3.1948023851        -3.1192528161        -5.8233600352
        0.4700000000        -0.8375280400         1.8957636271         1.2229846200         3.1845948752        -2.9862781676        -6.0013071709
        0.4750000000        -0.8607420270         1.8850539844         1.2127753126         3.1718354879        -3.2522274645        -6.1676469945
        0.4800000000        -0.8822912264         1.8750788638         1.2051183320         3.1667317330        -3.4516894372        -6.3220577830
        0.4850000000        -0.9021339594         1.8658648473         1.2076706589         3.1488685908        -3.3852021130        -6.4642408859
        0.4900000000        -0.9202318474         1.8574367415         1.1821473903         3.1335573261        -4.0500753553        -6.5939213023
        0.4950000000        -0.9365498867         1.8498174536         1.2051183320         3.1259016937        -3.4516894372        -6.7108482135
        0.5000000000        -0.9510565163         1.8430278723         1.1770427366         3.0978310416        -4.1830500037        -6.8147954675
        0.5050000000        -0.9637236783         1.8370867578         1.1821473903         3.0825197769        -4.0500753553        -6.9055620168
        0.5100000000        -0.9745268728         1.8320106398         1.1770427366         3.0646566347        -4.1830500037        -6.9829723070
        0.5150000000        -0.9834452050         1.8278137266         1.1770427366         3.0467934924        -4.1830500037        -7.0468766164
        0.5200000000        -0.9904614257         1.8245078256         1.1617287755         3.0442416150        -4.5819739491        -7.0971513458
        0.5250000000        -0.9955619646         1.8221022756         1.1668334292         3.0238265953        -4.4489993006        -7.1336992574
        0.5300000000        -0.9987369566         1.8206038933         1.1464148143         2.9983078207        -4.9808978944        -7.1564496626
        0.5350000000        -0.9999802609         1.8200169341         1.1591764486         2.9804446785        -4.6484612733        -7.1653585592
        0.5400000000        -0.9992894726         1.8203430667         1.1515194680         2.9753409236        -4.8479232460        -7.1604087162
        0.5450000000        -0.9966659280         1.8215813638         1.1617287755         2.9574777814        -4.5819739491        -7.1416097073
        0.5500000000        -0.9921147013         1.8237283073         1.1489671412         2.9319590068        -4.9144105702        -7.1089978923
        0.5550000000        -0.9856445951         1.8267778087         1.1489671412         2.9115439871        -4.9144105702        -7.0626363465
        0.5600000000        -0.9772681236         1.8307212450         1.1362055069         2.8936808449        -5.2468471913        -7.0026147394
        0.5650000000        -0.9670014878         1.8355475078         1.1438624875         2.8783695801        -5.0473852187        -6.9290491606
        0.5700000000        -0.9548645447         1.8412430673         1.1464148143         2.8554026830        -4.9808978944        -6.8420818954
        0.5750000000        -0.9408807690         1.8477920481         1.1413101606         2.8349876633        -5.1138725429        -6.7418811499
        0.5800000000        -0.9250772068         1.8551763174         1.1362055069         2.8120207662        -5.2468471913        -6.6286407256
        0.5850000000        -0.9074844245         1.8633755837         1.1336531800         2.7992613789        -5.3133345156        -6.5025796440
        0.5900000000        -0.8881364488         1.8723675048         1.1515194680         2.7788463592        -4.8479232460        -6.3639417240
        0.5950000000        -0.8670707012         1.8821278043         1.1311008532         2.7660869720        -5.3798218398        -6.2129951092
        0.6000000000        -0.8443279255         1.8926303944         1.1515194680         2.7431200748        -4.8479232460        -6.0500317502
        0.6050000000        -0.8199521093         1.9038475044         1.1311008532         2.7176013002        -5.3798218398        -5.8753668394
        0.6100000000        -0.7939903986         1.9157498133         1.1540717949         2.7022900355        -4.7814359218        -5.6893382015
        0.6150000000        -0.7664930068         1.9283065853         1.1234438726         2.6844268933        -5.5792838125        -5.4923056403
        0.6200000000        -0.7375131174         1.9414858057         1.1438624875         2.6487006088        -5.0473852187        -5.2846502424
        0.6250000000        -0.7071067812         1.9552543189         1.1387578337         2.6487006088        -5.1803598671        -5.0667736406
        0.6300000000        -0.6753328081         1.9695779639         1.1413101606         2.6206299568        -5.1138725429        -4.8390972366
        0.6350000000        -0.6422526532         1.9844217087         1.1362055069         2.6027668146        -5.2468471913        -4.6020613863
        0.6400000000        -0.6079302977         1.9997497820         1.1489671412         2.5797999174        -4.9144105702        -4.3561245481
        0.6450000000        -0.5724321256         2.0155258013         1.1438624875         2.5593848978        -5.0473852187        -4.1017623959
        0.6500000000        -0.5358267950         2.0317128966         1.1387578337         2.5389698781        -5.1803598671        -3.8394668994
        0.6550000000        -0.4981851053         2.0482738293         1.1362055069         2.5211067359        -5.2468471913        -3.5697453723
        0.6600000000        -0.4595798606         2.0651711065         1.1489671412         2.5057954711        -4.9144105702        -3.2931194913
        0.6650000000        -0.4200857284         2.0823670889         1.1693857560         2.4777248191        -4.3825119764        -3.0101242869
