% f=6.10Hz  n_cycles=5  N_total=163  dt=0.005000
% Amp=1.0000V  K_lin=8.382100
Time[s]              Vcmd[V]              Vc[V]                Vg[V]                Pot[V]               Omega[rad/s]         Omega_target[rad/s] 
        0.0000000000         0.0000000000         2.5000000000         1.3378393285         5.0066353810        -0.0116352817         0.0000000000
        0.0050000000         0.1904663312         2.8303878751         1.3352870017         5.0066353810        -0.0781226060         1.5965078350
        0.0100000000         0.3739592057         2.9209951750         1.3148683868         5.0015316260        -0.6100211998         3.1345634584
        0.0150000000         0.5437604828         3.0077837321         1.3454963091         5.0142910133         0.1878266909         4.5578547427
        0.0200000000         0.6936533058         3.0869977055         1.3429439823         5.0142910133         0.1213393667         5.8142713747
        0.0250000000         0.8181497174         3.1548303516         1.3454963091         5.0142910133         0.1878266909         6.8578127464
        0.0300000000         0.9126915874         3.2076871759         1.3327346748         4.9989797486        -0.1446099302         7.6502721548
        0.0350000000         0.9738174975         3.2425226177         1.3939905194         5.0117391359         1.4510858512         8.1626356456
        0.0400000000         0.9992894726         3.2571992708         1.5011882474         5.0117391359         4.2435534688         8.3761442886
        0.0450000000         0.9881749191         3.2507833776         1.4297230954         5.0015316260         2.3819083904         8.2829809895
        0.0500000000         0.9408807690         3.2236856276         1.4450370565         5.0040835035         2.7808323358         7.8865566935
        0.0550000000         0.8591385813         3.1775983394         1.5267115159         5.0040835035         4.9084267110         7.2013855021
        0.0600000000         0.7459411454         3.1152512727         1.5088452279         5.0066353810         4.4430154414         6.2525532751
        0.0650000000         0.6054329074         3.0400659543         1.4833219594         4.9989797486         3.7781421992         5.0747991730
        0.0700000000         0.4427582310         2.9558017433         1.5062929011         4.9862203613         4.3765281172         3.7112437684
        0.0750000000         0.2638730500         2.8662603138         1.4858742862         1.1022628687         3.8446295234         2.2118102921
        0.0800000000         0.0753268055         2.7750752606         1.4986359205         1.1099185011         4.1770661445         0.6313968166
        0.0850000000        -0.1159773448         2.1849799809         1.4986359205         1.1201260109         4.1770661445        -0.9721337019
        0.0900000000        -0.3030352696         2.0900158404         1.4858742862         0.0126111937         3.8446295234        -2.5400719336
        0.0950000000        -0.4789983026         1.9976170043         1.4297230954        -0.0052519485         2.3819083904        -4.0150116726
        0.1000000000        -0.6374239897         1.9116154190         1.3990951731        -0.0052519485         1.5840604997        -5.3429516245
        0.1050000000        -0.7725119637         1.8359659723         1.3684672508         0.0024036839         0.7862126090        -6.4752725307
        0.1100000000        -0.8793163102         1.7745085994         1.3480486360         0.0075074388         0.2543140152        -7.3705172436
        0.1150000000        -0.9539266506         1.7306486863         1.3327346748         0.0075074388        -0.1446099302        -7.9959085777
        0.1200000000        -0.9936113105         1.7069922638         1.3123160600        -0.0027000711        -0.6765085240        -8.3285493659
        0.1250000000        -0.9969173337         1.7050109427         1.1744904097        -0.0027000711        -4.2668240322        -8.3562607831
        0.1300000000        -0.9637236783         1.7248301725         1.2408509080         0.0177149486        -2.5381536024        -8.0780282438
        0.1350000000        -0.8952456483         1.7652104195         1.2102229857         1.1099185011        -3.3360014931        -7.5040385488
        0.1400000000        -0.7939903986         1.8237278113         1.1591764486         1.1201260109        -4.6657479776        -6.6553069205
        0.1450000000        -0.6636651414         1.8970938231         1.2025660052         1.1048147461        -3.5354634658        -5.5629075820
        0.1500000000        -0.5090414158         1.9815212309         1.2025660052         4.9785647289        -3.5354634658        -4.2668360510
        0.1550000000        -0.3357803894         2.0730557266         1.1591764486         4.9964278711        -4.6657479776        -2.8145448019
        0.1600000000        -0.1502255891         2.1678295397         1.2000136783         4.9964278711        -3.6019507900        -1.2592059106
        0.1650000000         0.0408293520         2.5000000000         1.2255369469         5.0040835035        -2.9370775477         0.3422357112
        0.1700000000         0.2303894267         2.8498371101         1.1974613514         5.0142910133        -3.6684381142         1.9311472133
        0.1750000000         0.4115143586         2.9399361144         1.2280892737         5.0066353810        -2.8705902235         3.4493545053
        0.1800000000         0.5775727034         3.0254303074         1.2434032349         4.9989797486        -2.4716662781         4.8412721574
        0.1850000000         0.7224846429         3.1025353115         1.2663741766         4.9964278711        -1.8732803601         6.0559385249
        0.1900000000         0.8409445823         3.1674646396         1.2970020988         5.0091872584        -1.0754324694         7.0488815833
        0.1950000000         0.9286154021         3.2167107339         1.3276300211         5.0091872584        -0.2775845786         7.7837471623
        0.2000000000         0.9822872507         3.2473921415         1.3608102703         5.0066353810         0.5867506363         8.2336299643
        0.2050000000         0.9999950652         3.2576071971         1.4705603251         5.0117391359         3.4457055780         8.3820586360
        0.2100000000         0.9810905174         3.2467034618         1.4220661148         5.0066353810         2.1824464177         8.2235988263
        0.2150000000         0.9262657510         3.2153770065         1.4424847297         5.0066353810         2.7143450116         7.7640521516
        0.2200000000         0.8375280400         3.1655666151         1.4858742862         5.0117391359         3.8446295234         7.0202437844
        0.2250000000         0.7181262978         3.1001800639         1.4833219594         5.0040835035         3.7781421992         6.0194064405
        0.2300000000         0.5724321256         3.0227393149         1.4807696325         5.0040835035         3.7116548750         4.7981833199
        0.2350000000         0.4057797577         2.9370347859         1.4884266131         4.9989797486         3.9111168476         3.4012865067
        0.2400000000         0.2242707609         2.8468470166         1.4731126519         1.1099185011         3.5121929023         1.8798599454
        0.2450000000         0.0345506414         2.5000000000         1.4782173056         1.1022628687         3.6451675507         0.2896069311
        0.2500000000        -0.1564344650         2.1647092765         1.4833219594         1.1150222560         3.7781421992        -1.3112493294
        0.2550000000        -0.3416921079         2.0699826638         1.4629033445         1.1124703785         3.2462436054        -2.8640974176
        0.2600000000        -0.5144395338         1.9786188479         1.4195137880         0.0151630711         2.1159590935        -4.3120836161
        0.2650000000        -0.6683520202         1.8944915443         1.3888858657         0.0100593162         1.3181112028        -5.6021934682
        0.2700000000        -0.7977944395         1.8215540838         1.3378393285         0.0024036839        -0.0116352817        -6.6871927717
        0.2750000000        -0.8980275758         1.7635829469         1.3250776943         0.0024036839        -0.3440719029        -7.5273569428
        0.2800000000        -0.9653816388         1.7238441090         1.3276300211        -0.0052519485        -0.2775845786        -8.0919254349
        0.2850000000        -0.9973906252         1.7047271616         1.3327346748         0.0100593162        -0.1446099302        -8.3602279598
        0.2900000000        -0.9928826046         1.7074287613         1.1464148143         1.1150222560        -4.9981845987        -8.3224412798
        0.2950000000        -0.9520226269         1.7317778713         1.2229846200         1.1124703785        -3.0035648719        -7.9799488613
        0.3000000000        -0.8763066800         1.7762614170         1.2229846200         1.1099185011        -3.0035648719        -7.3452902228
        0.3050000000        -0.7685069172         1.8382414338         1.1413101606         1.0971591138        -5.1311592472        -6.4417018308
        0.3100000000        -0.6325701619         1.9142925872         1.1974613514         4.9989797486        -3.6684381142        -5.3022663542
        0.3150000000        -0.4734734044         2.0005664976         1.2102229857         5.0040835035        -3.3360014931        -3.9687014231
        0.3200000000        -0.2970415816         2.0931090184         1.1566241217         4.9989797486        -4.7322353018        -2.4898322409
        0.3250000000        -0.1097343111         2.1880952619         1.2076706589         5.0066353810        -3.4024888173        -0.9198039690
        0.3300000000         0.0815906116         2.7780553767         1.1821473903         5.0066353810        -4.0673620596         0.6839006652
        0.3350000000         0.2699282945         2.8692412979         1.2178799663         5.0142910133        -3.1365395204         2.2625659570
        0.3400000000         0.4483832161         2.9586686627         1.2765834840         5.0040835035        -1.6073310632         3.7583929556
        0.3450000000         0.6104216880         3.0426959141         1.2638218497         5.0066353810        -1.9397676843         5.1166156308
        0.3500000000         0.7501110696         3.1175189509         1.2918974451         5.0066353810        -1.2084071178         6.2875059967
        0.3550000000         0.8623369776         3.1793843720         1.3327346748         5.0015316260        -0.1446099302         7.2281947796
        0.3600000000         0.9429905359         3.2248875425         1.3557056165         5.0066353810         0.4537759878         7.9042409709
        0.3650000000         0.9891188128         3.2513275279         1.3990951731         5.0066353810         1.5840604997         8.2908928005
        0.3700000000         0.9990329347         3.2570509763         1.4552463639         5.0117391359         3.0467816327         8.3739939618
        0.3750000000         0.9723699204         3.2416914150         1.4220661148         5.0015316260         2.1824464177         8.1505019098
        0.3800000000         0.9101059707         3.2062253443         1.4526940371         5.0015316260         2.9802943085         7.6285992569
        0.3850000000         0.8145207271         3.1528252426         1.4960835936         5.0117391359         4.1105788203         6.8273941864
        0.3900000000         0.6891138084         3.0845604443         1.4680079982         5.0040835035         3.3792182538         5.7762208533
        0.3950000000         0.5384766808         3.0050374308         1.4935312668         5.0066353810         4.0440914961         4.5135653864
        0.4000000000         0.3681245527         2.9180649764         1.4782173056         4.9989797486         3.6451675507         3.0856568131
        0.4050000000         0.1842944486         2.8273938030         1.4731126519         1.1048147461         3.5121929023         1.5447744973
        0.4100000000        -0.0062831440         2.5000000000         1.4807696325         1.1022628687         3.7116548750        -0.0526659410
        0.4150000000        -0.1966306946         2.1444254488         1.4731126519         1.1048147461         3.5121929023        -1.6481781453
        0.4200000000        -0.3797790955         2.0501012795         1.4654556714         1.1124703785         3.3127309296        -3.1833463566
        0.4250000000        -0.5490228180         1.9599490285         1.4246184417         0.0100593162         2.2489337420        -4.6019641627
        0.4300000000        -0.6981654190         1.8778764881         1.3812288851         0.0049555613         1.1186492301        -5.8520923585
        0.4350000000        -0.8217464086         1.8078237601         1.3480486360         0.0024036839         0.2543140152        -6.8879605718
        0.4400000000        -0.9152411726         1.7534885558         1.3199730405         0.0049555613        -0.4770465513        -7.6716430330
        0.4450000000        -0.9752266299         1.7179805149         1.3429439823         0.0075074388         0.1213393667        -8.1744471346
        0.4500000000        -0.9995065604         1.7034580545         1.3199730405         0.0049555613        -0.4770465513        -8.3779639396
        0.4550000000        -0.9871920140         1.7108347095         1.1464148143         1.1150222560        -4.9981845987        -8.2747421805
        0.4600000000        -0.9387338577         1.7396441571         1.2408509080         1.1175741334        -2.5381536024        -7.8685610682
        0.4650000000        -0.8559062677         1.7881099231         1.2255369469         1.1124703785        -2.9370775477        -7.1742919262
        0.4700000000        -0.7417417727         1.8533956404         1.1438624875         1.1175741334        -5.0646719230        -6.2173537133
        0.4750000000        -0.6004202253         1.9319559878         1.1974613514         4.9964278711        -3.6684381142        -5.0327823707
        0.4800000000        -0.4371157667         2.0198959631         1.2102229857         5.0015316260        -3.3360014931        -3.6639480676
        0.4850000000        -0.2578073882         2.1132722538         1.1693857560         5.0117391359        -4.3997986807        -2.1609673087
        0.4900000000        -0.0690600257         2.2083096495         1.2051183320         5.0040835035        -3.4689761415        -0.5788680415
        0.4950000000         0.1222157999         2.7974635278         1.1898043709         5.0117391359        -3.8679000869         1.0244250567
        0.5000000000         0.3090169944         2.8885667094         1.2127753126         5.0091872584        -3.2695141688         2.5902113486
        0.5050000000         0.4845042908         2.9771565762         1.2255369469         5.0091872584        -2.9370775477         4.0611634163
        0.5100000000         0.6422526532         3.0595433444         1.2689265034         5.0066353810        -1.8067930359         5.3834259642
        0.5150000000         0.7764865127         3.1319128530         1.2867927914         5.0091872584        -1.3413817663         6.5085875980
        0.5200000000         0.8822912264         3.1905584200         1.3276300211         4.9989797486        -0.2775845786         7.3954532891
        0.5250000000         0.9557930148         3.2321947057         1.3684672508         5.0040835035         0.7862126090         8.0115526293
        0.5300000000         0.9943007904         3.2543172711         1.4424847297         5.0066353810         2.7143450116         8.3343286552
        0.5350000000         0.9964046856         3.2555322546         1.4297230954         5.0040835035         2.3819083904         8.3519637155
        0.5400000000         0.9620276716         3.2357617761         1.4348277491         5.0066353810         2.5148830389         8.0638121460
        0.5450000000         0.8924283781         3.1962558877         1.4603510177         5.0015316260         3.1797562811         7.4804239083
        0.5500000000         0.7901550124         3.1394068211         1.4756649788         4.9989797486         3.5786802265         6.6231583292
        0.5550000000         0.6589520623         3.0684288079         1.5190545354         5.0091872584         4.7089647384         5.5234020817
        0.5600000000         0.5036232016         2.9869974614         1.4935312668         5.0040835035         4.0440914961         4.2214200384
        0.5650000000         0.3298554149         2.8989280537         1.4654556714         4.9913241162         3.3127309296         2.7648810729
        0.5700000000         0.1440107826         2.8079336307         1.4858742862         1.1150222560         3.8446295234         1.2071127804
        0.5750000000        -0.0471064507         2.5000000000         1.4884266131         1.1175741334         3.9111168476        -0.3948509805
        0.5800000000        -0.2364989970         2.1241624080         1.4782173056         1.1175741334         3.6451675507        -1.9823582430
        0.5850000000        -0.4172327137         2.0304085409         1.4577986908         1.0895034814         3.1132689569        -3.4972863292
        0.5900000000        -0.5826904797         1.9416460127         1.4246184417         0.0049555613         2.2489337420        -4.8841698696
        0.5950000000        -0.7268144655         1.8618081852         1.3837812120         0.0049555613         1.1851365543        -6.0922315312
        0.6000000000        -0.8443279255         1.7948094066         1.3429439823         0.0075074388         0.1213393667        -7.0772411044
        0.6050000000        -0.9309283931         1.7442527242         1.3148683868        -0.0027000711        -0.6100211998        -7.8031348839
        0.6100000000        -0.9834452050         1.7130746186         1.3378393285         0.0024036839        -0.0116352817        -8.2433360528
        0.6150000000        -0.9999555871         1.7031886480         1.3046590794         0.0075074388        -0.8759704967        -8.3817277267
        0.6200000000        -0.9798550524         1.7152189143         1.1464148143         1.1073666236        -4.9981845987        -8.2132430346
        0.6250000000        -0.9238795325         1.7484070696         1.2485078886         1.1201260109        -2.3386916297        -7.7440506295
        0.6300000000        -0.8340784336         1.8007249189         1.2051183320         1.1048147461        -3.4689761415        -6.9913288384
        0.6350000000        -0.7137396023         1.8691539854         1.1438624875         1.1124703785        -5.0646719230        -5.9826367202
        0.6400000000        -0.5672689491         1.9500455230         1.2102229857         4.9989797486        -3.3360014931        -4.7549050585
        0.6450000000        -0.4000291372         2.0394716873         1.2025660052         5.0040835035        -3.5354634658        -3.3530842312
        0.6500000000        -0.2181432414         2.1335098079         1.1617287755         5.0040835035        -4.5992606534        -1.8284984637
        0.6550000000        -0.0282705668         2.5000000000         1.2178799663         5.0117391359        -3.1365395204        -0.2369667177
        0.6600000000         0.1626371652         2.8169140413         1.1770427366         5.0066353810        -4.2003367080         1.3632409824
        0.6650000000         0.3475903370         2.9077789874         1.2204322931         5.0066353810        -3.0700521962         2.9135369635
