% f=1.85Hz  n_cycles=5  N_total=540  dt=0.005000
% Amp=2.0000V  K_lin=4.959600
Time[s]              Vcmd[V]              Vc[V]                Vg[V]                Pot[V]               Omega[rad/s]         Omega_target[rad/s] 
        0.0000000000         0.0000000000         2.5000000000         1.3429439823         0.4745010138         0.1386260710         0.0000000000
        0.0050000000         0.1161734992         2.7509927283         1.3378393285         0.4719491363         0.0056514226         0.5761740866
        0.0100000000         0.2319546896         2.7872114484         1.3352870017         0.4693972588        -0.0608359017         1.1504024786
        0.0150000000         0.3469525873         2.8232013825         1.3327346748         0.4668453814        -0.1273232259         1.7207460519
        0.0200000000         0.4607788534         2.8588406046         1.3506009628         0.4668453814         0.3380880437         2.2852788011
        0.0250000000         0.5730491055         2.8940082144         1.3378393285         0.4693972588         0.0056514226         2.8420943434
        0.0300000000         0.6833842158         2.9285847527         1.3301823480         0.4642935039        -0.1938105501         3.3893123566
        0.0350000000         0.7914115913         2.9624526141         1.3352870017         0.4719491363        -0.0608359017         3.9250849284
        0.0400000000         0.8967664322         2.9954964549         1.3352870017         0.4668453814        -0.0608359017         4.4476027970
        0.0450000000         0.9990929633         3.0276035962         1.4399324028         0.4770528912         2.6651443916         4.9551014607
        0.0500000000         1.0980456360         3.0586644183         1.4118568074         0.4796047687         1.9337838251         5.4458671363
        0.0550000000         1.1932902949         3.0885727479         1.3939905194         0.4949160334         1.4683725555         5.9182425467
        0.0600000000         1.2845053064         3.1172262329         1.4603510177         0.5025716658         3.1970429854         6.3706325174
        0.0650000000         1.3713826443         3.1445267075         1.4450370565         0.5102272982         2.7981190401         6.8015093629
        0.0700000000         1.4536289310         3.1703805419         1.4501417102         0.5229866855         2.9310936885         7.2094180461
        0.0750000000         1.5309664270         3.1946989786         1.4858742862         0.5382979502         3.8619162277         7.5929810913
        0.0800000000         1.6031339697         3.2173984521         1.4603510177         0.5434017052         3.1970429854         7.9509032363
        0.0850000000         1.6698878551         3.2384008902         1.4731126519         0.5612648474         3.5294796066         8.2819758063
        0.0900000000         1.7310026605         3.2576339981         1.5088452279         0.5816798670         4.4603021457         8.5850807950
        0.0950000000         1.7862720060         3.2750315204         1.4858742862         0.5867836220         3.8619162277         8.8591946410
        0.1000000000         1.8355092514         3.2905334838         1.5190545354         0.6097505191         4.7262514427         9.1033916831
        0.1050000000         1.8785481263         3.3040864157         1.5139498816         0.6276136613         4.5932767942         9.3168472872
        0.1100000000         1.9152432919         3.3156435410         1.5267115159         0.6480286810         4.9257134153         9.4988406306
        0.1150000000         1.9454708315         3.3251649536         1.5343684965         0.6658918232         5.1251753880         9.6487571359
        0.1200000000         1.9691286691         3.3326177632         1.5369208233         0.6812030879         5.1916627122         9.7660905471
        0.1250000000         1.9861369139         3.3379762172         1.5420254771         0.7041699851         5.3246373607         9.8504446382
        0.1300000000         1.9964381306         3.3412217953         1.5649964188         0.7296887597         5.9230232787         9.9015345523
        0.1350000000         1.9999975326         3.3423432778         1.5649964188         0.7526556568         5.9230232787         9.9191877627
        0.1400000000         1.9968031002         3.3413367877         1.5701010725         0.7807263088         6.0559979272         9.9033446558
        0.1450000000         1.9868656208         3.3382058047         1.5752057262         0.8062450834         6.1889725756         9.8540587327
        0.1500000000         1.9702186523         3.3329611520         1.5777580530         0.8164525933         6.2554598999         9.7714964280
        0.1550000000         1.9469184104         3.3256209570         1.5803103799         0.8394194904         6.3219472241         9.6559365481
        0.1600000000         1.9170435780         3.3162105836         1.5803103799         0.8700420199         6.3219472241         9.5077693296
        0.1650000000         1.8806950403         3.3047625390         1.5930720142         0.8955607945         6.6543838452         9.3274951216
        0.1700000000         1.8379955432         3.2913163536         1.5981766679         0.9287352015         6.7873584937         9.1157226960
        0.1750000000         1.7890892797         3.2759184355         1.6007289948         0.9491502211         6.8538458179         8.8731671915
        0.1800000000         1.7341414023         3.2586219000         1.6032813216         0.9746689957         6.9203331421         8.6006476990
        0.1850000000         1.6733374658         3.2394863746         1.6288045902         1.0052915252         7.5852063844         8.2990844954
        0.1900000000         1.6068828002         3.2185777807         1.6007289948         1.0257065449         6.8538458179         7.9694959360
        0.1950000000         1.5350018178         3.1959680936         1.6058336485         1.0537771970         6.9868204664         7.6129950154
        0.2000000000         1.4579372548         3.1717350800         1.6032813216         1.0792959716         6.9203331421         7.2307856091
        0.2050000000         1.3759493524         3.1459620162         1.5930720142         1.1048147461         6.6543838452         6.8241584084
        0.2100000000         1.2893149773         3.1187373870         1.6083859753         1.1354372756         7.0533077906         6.3944865612
        0.2150000000         1.1983266868         3.0901545671         1.6185952828         1.1660598052         7.3192570875         5.9432210357
        0.2200000000         1.1032917413         3.0603114863         1.6007289948         1.1941304572         6.8538458179         5.4718857199
        0.2250000000         1.0045310663         3.0293102793         1.6160429559         1.2196492318         7.2527697633         4.9820722764
        0.2300000000         0.9023781689         2.9972569226         1.6007289948         1.2502717613         6.8538458179         4.4754347664
        0.2350000000         0.7971780114         2.9642608592         1.5956243410         1.2604792711         6.7208711695         3.9536840651
        0.2400000000         0.6892858463         2.9304346127         1.5981766679         1.2962055556         6.7873584937         3.4185820836
        0.2450000000         0.5790660172         2.8958933931         1.5854150336         1.3166205752         6.4549218725         2.8719358191
        0.2500000000         0.4668907277         2.8607546938         1.5956243410         1.3472431047         6.7208711695         2.3155912532
        0.2550000000         0.3531387849         2.8251378845         1.5879673605         1.3727618793         6.5214091968         1.7514271176
        0.2600000000         0.2381943202         2.7891637980         1.5803103799         1.4033844088         6.3219472241         1.1813485504
        0.2650000000         0.1224454920         2.7529543157         1.6185952828         1.4212475511         7.3192570875         0.6072806620
        0.2700000000         0.0062831750         2.5000000000         1.5701010725         1.4442144482         6.0559979272         0.0311620346
        0.2750000000        -0.1099003598         2.2479790035         1.5522347845         1.4646294679         5.5905866576        -0.5450618246
        0.2800000000        -0.2257127697         2.2057040609         1.5496824576         1.4799407326         5.5240993334        -1.1194450528
        0.2850000000        -0.3407629654         2.1641114304         1.5190545354         1.5054595072         4.7262514427        -1.6900480032
        0.2900000000        -0.4546624313         2.1233203457         1.4884266131         1.5207707720         3.9284035519        -2.2549437942
        0.2950000000        -0.5670265379         2.0834446976         1.4577986908         1.5386339142         3.1305556612        -2.8122248174
        0.3000000000        -0.6774758405         2.0445930384         1.4220661148         1.5411857916         2.1997331220        -3.3600091785
        0.3050000000        -0.7856373604         2.0068686027         1.3557056165         1.5462895465         0.4710626921        -3.8964470527
        0.3100000000        -0.8911458448         1.9703693414         1.2740311571         1.5437376691        -1.6565316831        -4.4197269316
        0.3150000000        -0.9936449996         1.9351879661         1.3250776943         1.5462895465        -0.3267851986        -4.9280817402
        0.3200000000        -1.0927886935         1.9014119996         1.2867927914         1.5386339142        -1.3240950620        -5.4197948041
        0.3250000000        -1.1882421258         1.8691238322         1.2740311571         1.5437376691        -1.6565316831        -5.8932056471
        0.3300000000        -1.2796829579         1.8384007798         1.2867927914         1.5335301593        -1.3240950620        -6.3467155980
        0.3350000000        -1.3668024013         1.8093151437         1.2280892737         1.5233226494        -2.8533035192        -6.7787931893
        0.3400000000        -1.4493062604         1.7819342703         1.2434032349         1.5233226494        -2.4543795738        -7.1879793290
        0.3450000000        -1.5269159262         1.7563206090         1.1974613514         1.5105632621        -3.6511514099        -7.5728922275
        0.3500000000        -1.5993693170         1.7325317685         1.2051183320         1.4978038748        -3.4516894372        -7.9322320645
        0.3550000000        -1.6664217633         1.7106205710         1.2153276394         1.4824926101        -3.1857401403        -8.2647853774
        0.3600000000        -1.7278468344         1.6906351014         1.1923566977         1.4671813453        -3.7841260584        -8.5694291598
        0.3650000000        -1.7834371025         1.6726187551         1.1693857560         1.4416625707        -4.3825119764        -8.8451346538
        0.3700000000        -1.8330048438         1.6566102802         1.1617287755         1.4263513060        -4.5819739491        -9.0909708234
        0.3750000000        -1.8763826718         1.6426438160         1.1540717949         1.4059362863        -4.7814359218        -9.3061074993
        0.3800000000        -1.9134241031         1.6307489280         1.1464148143         1.3880731441        -4.9808978944        -9.4898181818
        0.3850000000        -1.9440040516         1.6209506374         1.1336531800         1.3702100019        -5.3133345156        -9.6414824945
        0.3900000000        -1.9680192513         1.6132694464         1.1362055069         1.3625543695        -5.2468471913        -9.7605882788
        0.3950000000        -1.9853886047         1.6077213597         1.1081299115         1.3268280851        -5.9782077578        -9.8467333238
        0.4000000000        -1.9960534569         1.6043179006         1.1106822383         1.3064130654        -5.9117204336        -9.8996267246
        0.4050000000        -1.9999777934         1.6030661228         1.1183392189         1.2962055556        -5.7122584609        -9.9190898643
        0.4100000000        -1.9971483622         1.6039686177         1.0877112966         1.2604792711        -6.5101063517        -9.9050570174
        0.4150000000        -1.9875747180         1.6070235172         1.1106822383         1.2528236388        -5.9117204336        -9.8575755716
        0.4200000000        -1.9712891903         1.6122244915         1.0902636235         1.2247529867        -6.4436190274        -9.7768058682
        0.4250000000        -1.9483467739         1.6195607428         1.0979206040         1.2017860896        -6.2441570547        -9.6630206600
        0.4300000000        -1.9188249437         1.6290169943         1.0749496623         1.1711635601        -6.8425429728        -9.5166041908
        0.4350000000        -1.8828233925         1.6405734740         1.0826066429         1.1533004179        -6.6430810001        -9.3380508975
        0.4400000000        -1.8404636947         1.6542058954         1.0749496623         1.1175741334        -6.8425429728        -9.1279637404
        0.4450000000        -1.7918888958         1.6698854319         1.0698450086         1.0971591138        -6.9755176212        -8.8870521674
        0.4500000000        -1.7372630289         1.6875786880         1.0698450086         1.0792959716        -6.9755176212        -8.6161297180
        0.4550000000        -1.6767705613         1.7072476654         1.0749496623         1.0435696871        -6.8425429728        -8.3161112760
        0.4600000000        -1.6106157714         1.7288497254         1.0723973355         1.0206027900        -6.9090302970        -7.9880099799
        0.4650000000        -1.5390220587         1.7523375463         1.0723973355         0.9899802605        -6.9090302970        -7.6329338023
        0.4700000000        -1.4622311895         1.7776590777         1.0723973355         0.9619096084        -6.9090302970        -7.2520818072
        0.4750000000        -1.3805024805         1.8047574905         1.0647403549         0.9338389564        -7.1084922697        -6.8467401021
        0.4800000000        -1.2941119231         1.8335711240         1.0749496623         0.9134239367        -6.8425429728        -6.4182774940
        0.4850000000        -1.2033512516         1.8640334299         1.0851589698         0.8879051621        -6.5765936759        -5.9681408674
        0.4900000000        -1.1085269575         1.8960729145         1.0647403549         0.8598345101        -7.1084922697        -5.4978502983
        0.4950000000        -1.0099592550         1.9296130790         1.0723973355         0.8215563482        -6.9090302970        -5.0089939210
        0.5000000000        -0.9079809995         1.9645723601         1.0749496623         0.7934856961        -6.8425429728        -4.5032225650
        0.5050000000        -0.8029365635         2.0008640711         1.0775019892         0.7730706765        -6.7760556486        -3.9822441805
        0.5100000000        -0.6951806739         2.0383963455         1.0723973355         0.7450000244        -6.9090302970        -3.4478180705
        0.5150000000        -0.5850772139         2.0770720852         1.0928159503         0.7296887597        -6.3771317032        -2.9017489499
        0.5200000000        -0.4729979940         2.1167889150         1.0928159503         0.6990662302        -6.3771317032        -2.3458808513
        0.5250000000        -0.3593214972         2.1574391469         1.1030252578         0.6735474556        -6.1111824063        -1.7820908974
        0.5300000000        -0.2444315999         2.1989097563         1.1055775846         0.6582361908        -6.0446950821        -1.2122829628
        0.5350000000        -0.1287162763         2.2410823755         1.1106822383         0.6276136613        -5.9117204336        -0.6383812438
        0.5400000000        -0.0125662879         2.5000000000         1.1081299115         0.6046467642        -5.9782077578        -0.0623237616
        0.5450000000         0.1036261358         2.7470686415         1.1566241217         0.5893354994        -4.7149485975         0.5139441830
        0.5500000000         0.2194686222         2.7833047626         1.1413101606         0.5638167248        -5.1138725429         1.0884765786
        0.5550000000         0.3345699803         2.8193253227         1.1949090246         0.5536092150        -3.7176387341         1.6593332743
        0.5600000000         0.4485415219         2.8550083100         1.2000136783         0.5306423179        -3.5846640857         2.2245865320
        0.5650000000         0.5609983740         2.8902326933         1.2357462543         0.5204348080        -2.6538415465         2.7823275359
        0.5700000000         0.6715607788         2.9248788375         1.2740311571         0.5153310531        -1.6565316831         3.3306728385
        0.5750000000         0.7798553756         2.9588289170         1.3072114063         0.5153310531        -0.7921964682         3.8677707207
        0.5800000000         0.8855164621         2.9919673243         1.3454963091         0.5000197884         0.2051133952         4.3918074453
        0.5850000000         0.9881872291         3.0241810729         1.3506009628         0.5102272982         0.3380880437         4.9010133815
        0.5900000000         1.0875209656         3.0553601939         1.3888858657         0.5102272982         1.3353979071         5.3936689808
        0.5950000000         1.1831822292         3.0853981228         1.4016475000         0.5229866855         1.6678345282         5.8681105840
        0.6000000000         1.2748479795         3.1141920769         1.4067521537         0.5255385629         1.8008091767         6.3227360391
        0.6050000000         1.3622086684         3.1416434205         1.4322754222         0.5280904404         2.4656824189         6.7560101117
        0.6100000000         1.4449692857         3.1676580169         1.4424847297         0.5459535826         2.7316317159         7.1664696694
        0.6150000000         1.5228503554         3.1921465664         1.4450370565         0.5510573375         2.7981190401         7.5527286224
        0.6200000000         1.5955888791         3.2150249271         1.4577986908         0.5536092150         3.1305556612         7.9134826047
        0.6250000000         1.6629392246         3.2362144190         1.4756649788         0.5689204797         3.5959669308         8.2475133784
        0.6300000000         1.7246739551         3.2556421097         1.4756649788         0.5867836220         3.5959669308         8.5536929478
        0.6350000000         1.7805845973         3.2732410788         1.5011882474         0.6097505191         4.2608401731         8.8309873686
        0.6400000000         1.8304823452         3.2889506629         1.5088452279         0.6250617838         4.4603021457         9.0784602395
        0.6450000000         1.8741986982         3.3027166768         1.5113975548         0.6429249261         4.5267894700         9.2952758638
        0.6500000000         1.9115860296         3.3144916126         1.5216068622         0.6658918232         4.7927387669         9.4807020724
        0.6550000000         1.9425180852         3.3242348138         1.5267115159         0.6760993330         4.9257134153         9.6341126954
        0.6600000000         1.9668904100         3.3319126258         1.5394731502         0.7016181076         5.2581500365         9.7549896774
        0.6650000000         1.9846207005         3.3374985189         1.5547871113         0.7245850047         5.6570739818         9.8429248261
