% f=2.80Hz  n_cycles=5  N_total=357  dt=0.005000
% Amp=1.5000V  K_lin=5.741200
Time[s]              Vcmd[V]              Vc[V]                Vg[V]                Pot[V]               Omega[rad/s]         Omega_target[rad/s] 
        0.0000000000         0.0000000000         2.5000000000         1.3378393285         2.5415217556         0.0212759438         0.0000000000
        0.0050000000         0.1317767948         2.7461884135         1.3378393285         2.5415217556         0.0212759438         0.7565569345
        0.0100000000         0.2625345885         2.7899937892         1.3378393285         2.5440736330         0.0212759438         1.5072635793
        0.0150000000         0.3912622594         2.8328052756         1.3378393285         2.5389698781         0.0212759438         2.2463148839
        0.0200000000         0.5169643848         2.8743165124         1.3403916554         2.5415217556         0.0877632680         2.9679959258
        0.0250000000         0.6386689373         2.9142364674         1.3352870017         2.5440736330        -0.0452113805         3.6667261031
        0.0300000000         0.7554348025         2.9522906697         1.3327346748         2.5389698781        -0.1116987047         4.3371022878
        0.0350000000         0.8663590551         2.9882222503         1.3429439823         2.5466255105         0.1542505922         4.9739406073
        0.0400000000         0.9705839424         3.0217928140         1.3403916554         2.5415217556         0.0877632680         5.5723165298
        0.0450000000         1.0673035158         3.0527831642         1.3403916554         2.5415217556         0.0877632680         6.1276029450
        0.0500000000         1.1557698642         3.0809939006         1.3403916554         2.5415217556         0.0877632680         6.6355059441
        0.0550000000         1.2352988964         3.1062459090         1.3378393285         2.5364180006         0.0212759438         7.0920980243
        0.0600000000         1.3052756320         3.1283807580         1.3327346748         2.5364180006        -0.1116987047         7.4938484585
        0.0650000000         1.3651589560         3.1472610182         1.3378393285         2.5415217556         0.0212759438         7.8376505983
        0.0700000000         1.4144858038         3.1627705152         1.3429439823         2.5466255105         0.1542505922         8.1208458970
        0.0750000000         1.4528747417         3.1748145267         1.3429439823         2.5415217556         0.1542505922         8.3412444670
        0.0800000000         1.4800289163         3.1833199326         1.3429439823         2.5440736330         0.1542505922         8.4971420143
        0.0850000000         1.4957383504         3.1882353239         1.3454963091         2.5440736330         0.2207379164         8.5873330173
        0.0900000000         1.4998815663         3.1895310762         1.3429439823         2.5389698781         0.1542505922         8.6111200485
        0.0950000000         1.4924265255         3.1871993906         1.3506009628         2.5466255105         0.3537125649         8.5683191680
        0.1000000000         1.4734308761         3.1812543042         1.3506009628         2.5466255105         0.3537125649         8.4592613458
        0.1050000000         1.4430415074         3.1717316712         1.3557056165         2.5568330203         0.4866872133         8.2847899022
        0.1100000000         1.4014934137         3.1586891127         1.3454963091         2.5491773879         0.2207379164         8.0462539866
        0.1150000000         1.3491078773         3.1422059337         1.3837812120         2.5466255105         1.2180477798         7.7454981454
        0.1200000000         1.2862899843         3.1223830028         1.5547871113         2.5644886527         5.6726985030         7.3848480578
        0.1250000000         1.2135254916         3.0993425897         1.5981766679         2.6002149371         6.8029830149         6.9670925522
        0.1300000000         1.1313770711         3.0732281528         1.5726533993         2.6231818342         6.1381097726         6.4954620406
        0.1350000000         1.0404799587         3.0442040688         1.5471301308         2.6435968539         5.4732365303         5.9736035390
        0.1400000000         0.9415370419         3.0124552920         1.5343684965         2.6589081187         5.1407999092         5.4055524652
        0.1450000000         0.8353134247         2.9781869332         1.5062929011         2.6793231383         4.4094393427         4.7957014341
        0.1500000000         0.7226305112         2.9416237406         1.5011882474         2.7048419129         4.2764646943         4.1487662906
        0.1550000000         0.6043596536         2.9030094675         1.4935312668         2.7150494228         4.0770027216         3.4697496431
        0.1600000000         0.4814154147         2.8626061080         1.4909789399         2.7303606875         4.0105153974         2.7639021789
        0.1650000000         0.3547484955         2.8206929790         1.5139498816         2.7354644424         4.6089013154         2.0366820626
        0.1700000000         0.2253383837         2.7775656269         1.5165022085         2.7533275847         4.6753886396         1.2937127284
        0.1750000000         0.0941857793         2.7335345354         1.5088452279         2.7788463592         4.4759266669         0.5407393961
        0.1800000000        -0.0376951432         2.5000000000         1.5088452279         2.7967095015         4.4759266669        -0.2164153559
        0.1850000000        -0.1692845773         2.2218269524         1.4756649788         2.8094688888         3.6115914520        -0.9718966153
        0.1900000000        -0.2995649708         2.1838079983         1.4782173056         2.8247801535         3.6780787762        -1.7198624102
        0.1950000000        -0.4275288937         2.1462252157         1.4475893834         2.8426432957         2.8802308855        -2.4545288845
        0.2000000000        -0.5521868290         2.1093804401         1.4195137880         2.8400914183         2.1488703190        -3.1702150228
        0.2050000000        -0.6725748241         2.0735753369         1.4144091342         2.8630583154         2.0158956706        -3.8613865803
        0.2100000000        -0.7877619449         2.0391086927         1.3837812120         2.8502989281         1.2180477798        -4.5226988783
        0.2150000000        -0.8968574746         2.0062735336         1.3506009628         2.8681620703         0.3537125649        -5.1490381331
        0.2200000000        -0.9990178012         1.9753540975         1.3480486360         2.8681620703         0.2872252407        -5.7355610000
        0.2250000000        -1.0934529411         1.9466227032         1.3250776943         2.8681620703        -0.3111606774        -6.2777320256
        0.2300000000        -1.1794326482         1.9203365636         1.3301823480         2.8681620703        -0.1781860289        -6.7713587199
        0.2350000000        -1.2562920601         1.8967346047         1.3352870017         2.8656101929        -0.0452113805        -7.2126239752
        0.2400000000        -1.3234368397         1.8760343569         1.3403916554         2.8630583154         0.0877632680        -7.5981155838
        0.2450000000        -1.3803477710         1.8584289944         1.3378393285         2.8656101929         0.0212759438        -7.9248526231
        0.2500000000        -1.4265847744         1.8440845978         1.3301823480         2.8656101929        -0.1781860289        -8.1903085070
        0.2550000000        -1.4617903092         1.8331377195         1.3327346748         2.8605064379        -0.1116987047        -8.3924305231
        0.2600000000        -1.4856921385         1.8256933241         1.3454963091         2.8732658252         0.2207379164        -8.5296557058
        0.2650000000        -1.4981054349         1.8218231694         1.3301823480         2.8605064379        -0.1781860289        -8.6009229229
        0.2700000000        -1.4989342090         1.8215646822         1.3327346748         2.8732658252        -0.1116987047        -8.6056810805
        0.2750000000        -1.4881720520         1.8249203651         1.3378393285         2.8681620703         0.0212759438        -8.5438933848
        0.2800000000        -1.4659021854         1.8318577571         1.3352870017         2.8732658252        -0.0452113805        -8.4160376265
        0.2850000000        -1.4322968171         1.8423099480         1.3301823480         2.8681620703        -0.1781860289        -8.2231024864
        0.2900000000        -1.3876158103         1.8561766288         1.3123160600         2.8681620703        -0.6435972985        -7.9665798898
        0.2950000000        -1.3322046732         1.8733256433         1.2434032349         2.8502989281        -2.4387550526        -7.6484534699
        0.3000000000        -1.2664918883         1.8935949881         1.0902636235         2.8451951732        -6.4279945062        -7.2711832288
        0.3050000000        -1.1909855980         1.9167951982         1.1157868920         2.8120207662        -5.7631212640        -6.8376865151
        0.3100000000        -1.1062696760         1.9427120457         1.1489671412         2.8043651338        -4.8987860490        -6.3513154641
        0.3150000000        -1.0129992122         1.9711094733         1.1566241217         2.7813982367        -4.6993240763        -5.8158310770
        0.3200000000        -0.9118954465         2.0017326868         1.1795950634         2.7609832170        -4.1009381583        -5.2353741377
        0.3250000000        -0.8037401925         2.0343113299         1.1949090246         2.7482238297        -3.7020142129        -4.6144331930
        0.3300000000        -0.6893697909         2.0685626735         1.1923566977         2.7278088101        -3.7685015372        -3.9578098437
        0.3350000000        -0.5696686433         2.1041947590         1.1898043709         2.7150494228        -3.8349888614        -3.2705816148
        0.3400000000        -0.4455623724         2.1409094423         1.1719380829         2.6971862806        -4.3004001310        -2.5580626922
        0.3450000000        -0.3180106649         2.1784052993         1.1795950634         2.6920825256        -4.1009381583        -1.8257628292
        0.3500000000        -0.1879998503         2.2163803601         1.1821473903         2.6691156285        -4.0344508341        -1.0793447408
        0.3550000000        -0.0565352740         2.2545346511         1.1974613514         2.6640118736        -3.6355268887        -0.3245803151
        0.3600000000         0.0753664773         2.7271893370         1.1898043709         2.6333893441        -3.8349888614         0.4326940193
        0.3650000000         0.2066854360         2.7713233850         1.2000136783         2.6282855892        -3.5690395645         1.1866224253
        0.3700000000         0.3364061414         2.8145991825         1.2280892737         2.6231818342        -2.8376789980         1.9313749391
        0.3750000000         0.4635254916         2.8567042300         1.2536125423         2.6104224470        -2.1728057557         2.6611925522
        0.3800000000         0.5870605003         2.8973407632         1.2638218497         2.5976630597        -1.9068564588         3.3704317441
        0.3850000000         0.7060558982         2.9362270752         1.2842404646         2.5951111822        -1.3749578650         4.0536081230
        0.3900000000         0.8195915201         2.9730986374         1.2944497720         2.5823517949        -1.1090085681         4.7054388352
        0.3950000000         0.9267894196         3.0077090403         1.3250776943         2.5874555498        -0.3111606774         5.3208834160
        0.4000000000         1.0268206589         3.0398307793         1.3378393285         2.5900074273         0.0212759438         5.8951827668
        0.4050000000         1.1189117181         3.0692559040         1.3454963091         2.5849036724         0.2207379164         6.4238959562
        0.4100000000         1.2023504773         3.0957965526         1.3327346748         2.5823517949        -0.1116987047         6.9029345603
        0.4150000000         1.2764917227         3.1192853862         1.3327346748         2.5772480400        -0.1116987047         7.3285942783
        0.4200000000         1.3407621362         3.1395759401         1.3378393285         2.5874555498         0.0212759438         7.6975835765
        0.4250000000         1.3946647288         3.1565429033         1.3429439823         2.5849036724         0.1542505922         8.0070491412
        0.4300000000         1.4377826835         3.1700823389         1.3480486360         2.5849036724         0.2872252407         8.2545979427
        0.4350000000         1.4697825786         3.1801118530         1.3506009628         2.5900074273         0.3537125649         8.4383157401
        0.4400000000         1.4904169658         3.1865707210         1.3454963091         2.5823517949         0.2207379164         8.5567818839
        0.4450000000         1.4995262839         3.1894199754         1.3531532897         2.5900074273         0.4201998891         8.6090803013
        0.4500000000         1.4970400926         3.1886424603         1.3557056165         2.5951111822         0.4866872133         8.5948065799
        0.4550000000         1.4829776171         3.1842428552         1.3429439823         2.5874555498         0.1542505922         8.5140710953
        0.4600000000         1.4574475994         3.1762476686         1.3327346748         2.5874555498        -0.1116987047         8.3674981575
        0.4650000000         1.4206474575         3.1647052008         1.3454963091         2.5976630597         0.2207379164         8.1562211830
        0.4700000000         1.3728617589         3.1496854763         1.3557056165         2.5976630597         0.4866872133         7.8818739304
        0.4750000000         1.3144600201         3.1312801394         1.4424847297         2.6002149371         2.7472562370         7.5465778672
        0.4800000000         1.2458938488         3.1096023109         1.5905196873         2.6206299568         6.6035210422         7.1529257647
        0.4850000000         1.1676934524         3.0847863978         1.5726533993         2.6410449765         6.1381097726         6.7039616486
        0.4900000000         1.0804635373         3.0569878491         1.5496824576         2.6665637511         5.5397238546         6.2031572605
        0.4950000000         0.9848786336         3.0263828468         1.5394731502         2.6895306482         5.2737745577         5.6543852114
        0.5000000000         0.8816778784         2.9931679206         1.5139498816         2.7048419129         4.6089013154         5.0618890357
        0.5050000000         0.7716593007         2.9575594731         1.4807696325         2.7227050552         3.7445661004         4.4302503770
        0.5100000000         0.6556736500         2.9197931979         1.4833219594         2.7405681974         3.8110534247         3.7643535592
        0.5150000000         0.5346178181         2.8801233748         1.4909789399         2.7482238297         4.0105153974         3.0693478171
        0.5200000000         0.4094279033         2.8388220195         1.5062929011         2.7609832170         4.4094393427         2.3506074783
        0.5250000000         0.2810719719         2.7961778692         1.5113975548         2.7865019916         4.5424139912         1.6136904049
        0.5300000000         0.1505425723         2.7524951778         1.5062929011         2.8069170113         4.4094393427         0.8642950160
        0.5350000000         0.0188490598         2.5000000000         1.4884266131         2.8196763986         3.9440280731         0.1082162223
        0.5400000000        -0.1129902083         2.2381799532         1.4782173056         2.8298839084         3.6780787762        -0.6486993838
        0.5450000000        -0.2439557478         2.2000659705         1.4731126519         2.8477470506         3.5451041278        -1.4005987392
        0.5500000000        -0.3730348307         2.1622593791         1.4654556714         2.8656101929         3.3456421551        -2.1416675703
        0.5550000000        -0.4992293168         2.1250613063         1.4373800759         2.8707139478         2.6142815886        -2.8661753535
        0.5600000000        -0.6215633715         2.0887738110         1.4067521537         2.8732658252         1.8164336979        -3.5685196284
        0.5650000000        -0.7390910123         2.0536972570         1.4067521537         2.8936808449         1.8164336979        -4.2432693199
        0.5700000000        -0.8509034237         2.0201275021         1.3659149240         2.8834733351         0.7526365102        -4.8852067361
        0.5750000000        -0.9561359846         1.9883529291         1.3506009628         2.8911289674         0.3537125649        -5.4893679149
        0.5800000000        -1.0539749547         1.9586513531         1.3378393285         2.8962327224         0.0212759438        -6.0510810099
        0.5850000000        -1.1436637665         1.9312868524         1.3327346748         2.8911289674        -0.1116987047        -6.5660024163
        0.5900000000        -1.2245088761         1.9065065765         1.3403916554         2.8911289674         0.0877632680        -7.0301503593
        0.5950000000        -1.2958851258         1.8845375985         1.3378393285         2.8987845998         0.0212759438        -7.4399356842
        0.6000000000        -1.3572405787         1.8655838809         1.3301823480         2.8936808449        -0.1781860289        -7.7921896104
        0.6050000000        -1.4081007865         1.8498234333         1.3352870017         2.8885770900        -0.0452113805        -8.0841882353
        0.6100000000        -1.4480724582         1.8374057388         1.3327346748         2.8860252125        -0.1116987047        -8.3136735973
        0.6150000000        -1.4768465018         1.8284495249         1.3327346748         2.8834733351        -0.1116987047        -8.4788711361
        0.6200000000        -1.4942004137         1.8230409484         1.3378393285         2.8885770900         0.0212759438        -8.5785034152
        0.6250000000        -1.5000000000         1.8212322538         1.3378393285         2.8911289674         0.0212759438        -8.6118000000
        0.6300000000        -1.4942004137         1.8230409484         1.3352870017         2.8936808449        -0.0452113805        -8.5785034152
        0.6350000000        -1.4768465018         1.8284495249         1.3276300211         2.8911289674        -0.2446733532        -8.4788711361
        0.6400000000        -1.4480724582         1.8374057388         1.3429439823         2.8962327224         0.1542505922        -8.3136735973
        0.6450000000        -1.4081007865         1.8498234333         1.3301823480         2.8860252125        -0.1781860289        -8.0841882353
        0.6500000000        -1.3572405787         1.8655838809         1.2663741766         2.8860252125        -1.8403691346        -7.7921896104
        0.6550000000        -1.2958851258         1.8845375985         1.1030252578         2.8758177027        -6.0955578851        -7.4399356842
        0.6600000000        -1.2245088761         1.9065065765         1.1259961995         2.8426432957        -5.4971719671        -7.0301503593
        0.6650000000        -1.1436637665         1.9312868524         1.1591764486         2.8324357859        -4.6328367521        -6.5660024163
