% f=3.10Hz  n_cycles=5  N_total=322  dt=0.005000
% Amp=1.5000V  K_lin=5.741200
Time[s]              Vcmd[V]              Vc[V]                Vg[V]                Pot[V]               Omega[rad/s]         Omega_target[rad/s] 
        0.0000000000         0.0000000000         2.5000000000         1.3352870017         2.6231818342        -0.0452113805         0.0000000000
        0.0050000000         0.1458532409         2.7509198295         1.3454963091         2.6282855892         0.2207379164         0.8373726266
        0.0100000000         0.2903242021         2.7992620090         1.3301823480         2.6155262019        -0.1781860289         1.6668093090
        0.0150000000         0.4320437040         2.8463042749         1.3429439823         2.6308374666         0.1542505922         2.4804493135
        0.0200000000         0.5696686433         2.8916363113         1.3327346748         2.6155262019        -0.1116987047         3.2705816148
        0.0250000000         0.7018947214         2.9348714504         1.3327346748         2.6231818342        -0.1116987047         4.0297179744
        0.0300000000         0.8274688059         2.9756486007         1.3378393285         2.6231818342         0.0212759438         4.7506639087
        0.0350000000         0.9452008068         3.0136338399         1.3327346748         2.6180780793        -0.1116987047         5.4265868719
        0.0400000000         1.0539749547         3.0485217186         1.3480486360         2.6231818342         0.2872252407         6.0510810099
        0.0450000000         1.1527603758         3.0800363170         1.3250776943         2.6282855892        -0.3111606774         6.6182278697
        0.0500000000         1.2406208614         3.1079320932         1.3352870017         2.6231818342        -0.0452113805         7.1226524895
        0.0550000000         1.3167237404         3.1319945581         1.3378393285         2.6129743244         0.0212759438         7.5595743386
        0.0600000000         1.3803477710         3.1520408044         1.3352870017         2.6282855892        -0.0452113805         7.9248526231
        0.0650000000         1.4308899759         3.1679199163         1.3378393285         2.6231818342         0.0212759438         8.2150255294
        0.0700000000         1.4678713565         3.1795132783         1.3378393285         2.6231818342         0.0212759438         8.4273430319
        0.0750000000         1.4909414332         3.1867348011         1.3327346748         2.6180780793        -0.1116987047         8.5597929562
        0.0800000000         1.4998815663         3.1895310762         1.3480486360         2.6282855892         0.2872252407         8.6111200485
        0.0850000000         1.4946070285         3.1878814674         1.3352870017         2.6180780793        -0.0452113805         8.5808378718
        0.0900000000         1.4751678075         3.1817981455         1.3480486360         2.6333893441         0.2872252407         8.4692334164
        0.0950000000         1.4417481327         3.1713260682         1.3429439823         2.6257337117         0.1542505922         8.2773643794
        0.1000000000         1.3946647288         3.1565429033         1.3480486360         2.6257337117         0.2872252407         8.0070491412
        0.1050000000         1.3343638146         3.1375588908         1.3454963091         2.6257337117         0.2207379164         7.6608495322
        0.1100000000         1.2614168734         3.1145166371         1.3735719045         2.6333893441         0.9520984829         7.2420465538
        0.1150000000         1.1765152379         3.0875908284         1.5267115159         2.6435968539         4.9413379365         6.7546092838
        0.1200000000         1.0804635373         3.0569878491         1.5905196873         2.6563562412         6.6035210422         6.2031572605
        0.1250000000         0.9741720725         3.0229452858         1.5598917651         2.6971862806         5.8056731515         5.5929167026
        0.1300000000         0.8586481884         2.9857312924         1.5369208233         2.7099456679         5.2072872334         4.9296709792
        0.1350000000         0.7349867275         2.9456437901         1.5037405742         2.7227050552         4.3429520185         4.2197057997
        0.1400000000         0.6043596536         2.9030094675         1.4986359205         2.7456719523         4.2099773700         3.4697496431
        0.1450000000         0.4680049450         2.8581825447         1.4935312668         2.7609832170         4.0770027216         2.6869099904
        0.1500000000         0.3272148621         2.8115432595         1.5113975548         2.7813982367         4.5424139912         1.8786059663
        0.1550000000         0.1833236999         2.7634960301         1.5037405742         2.7890538691         4.3429520185         1.0524980259
        0.1600000000         0.0376951432         2.5000000000         1.4858742862         2.8043651338         3.8775407489         0.2164153559
        0.1650000000        -0.1082906578         2.2395431006         1.4858742862         2.8273320310         3.8775407489        -0.6217183247
        0.1700000000        -0.2532501671         2.1973517527         1.4807696325         2.8477470506         3.7445661004        -1.4539598592
        0.1750000000        -0.3958095749         2.1555635308         1.4603510177         2.8554026830         3.2126675066        -2.2724219317
        0.1800000000        -0.5346178181         2.1145873438         1.4348277491         2.8579545605         2.5477942644        -3.0693478171
        0.1850000000        -0.6683593836         2.0748328061         1.4067521537         2.8758177027         1.8164336979        -3.8371848929
        0.1900000000        -0.7957667765         2.0367057948         1.3965428462         2.8834733351         1.5504844010        -4.5686562170
        0.1950000000        -0.9156325320         2.0006036822         1.3812288851         2.8936808449         1.1515604556        -5.2568294926
        0.2000000000        -1.0268206589         1.9669102993         1.3531532897         2.8911289674         0.4201998891        -5.8951827668
        0.2050000000        -1.1282774056         1.9359907140         1.3352870017         2.8911289674        -0.0452113805        -6.4776662410
        0.2100000000        -1.2190412466         1.9081859289         1.3250776943         2.8834733351        -0.3111606774        -6.9987596053
        0.2150000000        -1.2982519954         1.8838076218         1.3429439823         2.8962327224         0.1542505922        -7.4535243559
        0.2200000000        -1.3651589560         1.8631330755         1.3378393285         2.8860252125         0.0212759438        -7.8376505983
        0.2250000000        -1.4191280382         1.8464004477         1.3352870017         2.8911289674        -0.0452113805        -8.1474978932
        0.2300000000        -1.4596477665         1.8338045425         1.3352870017         2.8911289674        -0.0452113805        -8.3801297569
        0.2350000000        -1.4863341273         1.8254932343         1.3454963091         2.8962327224         0.2207379164        -8.5333414918
        0.2400000000        -1.4989342090         1.8215646822         1.3301823480         2.8834733351        -0.1781860289        -8.6056810805
        0.2450000000        -1.4973285979         1.8220654470         1.3352870017         2.8911289674        -0.0452113805        -8.5964629464
        0.2500000000        -1.4815325109         1.8269895878         1.3276300211         2.8860252125        -0.2446733532        -8.5057744515
        0.2550000000        -1.4516956505         1.8362787777         1.3429439823         2.8962327224         0.1542505922        -8.3344750686
        0.2600000000        -1.4081007865         1.8498234333         1.3378393285         2.8911289674         0.0212759438        -8.0841882353
        0.2650000000        -1.3511610759         1.8674648095         1.3352870017         2.8885770900        -0.0452113805        -7.7572859690
        0.2700000000        -1.2814161475         1.8889979744         1.3276300211         2.8885770900        -0.2446733532        -7.3568663863
        0.2750000000        -1.1995269877         1.9141755456         1.1642811023         2.8758177027        -4.4998621037        -6.8867243420
        0.2800000000        -1.1062696760         1.9427120457         1.0877112966         2.8477470506        -6.4944818305        -6.3513154641
        0.2850000000        -1.0025280303         1.9742887226         1.1336531800         2.8349876633        -5.2977099944        -5.7557139273
        0.2900000000        -0.8892852302         2.0085586764         1.1464148143         2.8145726437        -4.9652733732        -5.1055643639
        0.2950000000        -0.7676145002         2.0451521398         1.1362055069         2.7967095015        -5.2312226702        -4.4070283684
        0.3000000000        -0.6386689373         2.0836817728         1.1846997172         2.7865019916        -3.9679635098        -3.6667261031
        0.3050000000        -0.5036705841         2.1237478510         1.1846997172         2.7584313396        -3.9679635098        -2.8916735574
        0.3100000000        -0.3638988462         2.1649432473         1.2025660052         2.7507757072        -3.5025522403        -2.0892160558
        0.3150000000        -0.2206783678         2.2068581311         1.2076706589         2.7303606875        -3.3695775918        -1.2669586450
        0.3200000000        -0.0753664773         2.2490843304         1.1974613514         2.7252569326        -3.6355268887        -0.4326940193
        0.3250000000         0.0706596761         2.7256012984         1.1923566977         2.7073937904        -3.7685015372         0.4056713322
        0.3300000000         0.2160161738         2.7744467563         1.2025660052         2.6946344031        -3.5025522403         1.2401920572
        0.3350000000         0.3593254441         2.8222125868         1.2178799663         2.6844268933        -3.1036282949         2.0629592395
        0.3400000000         0.4992293168         2.8684771473         1.2382985811         2.6793231383        -2.5717297011         2.8661753535
        0.3450000000         0.6344018956         2.9128413005         1.2485078886         2.6614599961        -2.3057804042         3.6422281632
        0.3500000000         0.7635621236         2.9549305352         1.2714788303         2.6640118736        -1.7073944861         4.3837628642
        0.3550000000         0.8854859240         2.9943967265         1.2791358108         2.6461487314        -1.5079325135         5.0837517871
        0.3600000000         0.9990178012         3.0309195826         1.3021067526         2.6487006088        -0.9095465954         5.7355610000
        0.3650000000         1.1030817912         3.0642078244         1.3097637331         2.6333893441        -0.7100846227         6.3330131795
        0.3700000000         1.1966916593         3.0940001366         1.3352870017         2.6410449765        -0.0452113805         6.8704461544
        0.3750000000         1.2789602465         3.1200659283         1.3429439823         2.6359412215         0.1542505922         7.3427665674
        0.3800000000         1.3491078773         3.1422059337         1.3531532897         2.6461487314         0.4201998891         7.7454981454
        0.3850000000         1.4064697489         3.1602526807         1.3429439823         2.6435968539         0.1542505922         8.0748241226
        0.3900000000         1.4505022316         3.1740708496         1.3403916554         2.6410449765         0.0877632680         8.3276234123
        0.3950000000         1.4807880210         3.1835575399         1.3301823480         2.6487006088        -0.1781860289         8.5015001861
        0.4000000000         1.4970400926         3.1886424603         1.3327346748         2.6410449765        -0.1116987047         8.5948065799
        0.4050000000         1.4991044225         3.1892880519         1.3454963091         2.6487006088         0.2207379164         8.6066583106
        0.4100000000         1.4869614466         3.1854895521         1.3352870017         2.6410449765        -0.0452113805         8.5369430572
        0.4150000000         1.4607262462         3.1772750023         1.3480486360         2.6512524863         0.2872252407         8.3863215248
        0.4200000000         1.4206474575         3.1647052008         1.3403916554         2.6410449765         0.0877632680         8.1562211830
        0.4250000000         1.3671049150         3.1478735973         1.3454963091         2.6461487314         0.2207379164         7.8488227377
        0.4300000000         1.3006060517         3.1269061233         1.4246184417         2.6512524863         2.2818449675         7.4670394643
        0.4350000000         1.2217810906         3.1019609491         1.5675487456         2.6691156285         6.0051351242         7.0144895974
        0.4400000000         1.1313770711         3.0732281528         1.5726533993         2.6895306482         6.1381097726         6.4954620406
        0.4450000000         1.0302507698         3.0409292867         1.5420254771         2.7124975453         5.3402618819         5.9148757197
        0.4500000000         0.9193605805         3.0053168166         1.5241591891         2.7380163199         4.8748506123         5.2782329646
        0.4550000000         0.7997574311         2.9666734116         1.5011882474         2.7533275847         4.2764646943         4.5915673635
        0.4600000000         0.6725748241         2.9253110509         1.4884266131         2.7609832170         3.9440280731         3.8613865803
        0.4650000000         0.5390180940         2.8815699154         1.4986359205         2.7916057465         4.2099773700         3.0946106813
        0.4700000000         0.4003529840         2.8358170222         1.4986359205         2.8018132564         4.2099773700         2.2985065516
        0.4750000000         0.2578936504         2.7884445606         1.5088452279         2.8120207662         4.4759266669         1.4806190258
        0.4800000000         0.1129902083         2.7398678810         1.5011882474         2.8400914183         4.2764646943         0.6486993838
        0.4850000000        -0.0329840641         2.5000000000         1.4833219594         2.8451951732         3.8110534247        -0.1893681090
        0.4900000000        -0.1786457401         2.2191032543         1.4909789399         2.8732658252         4.0105153974        -1.0256409233
        0.4950000000        -0.3226143555         2.1770561177         1.4705603251         2.8732658252         3.4786168035        -1.8521935379
        0.5000000000        -0.4635254916         2.1356096121         1.4577986908         2.8936808449         3.1461801824        -2.6611925522
        0.5050000000        -0.6000437059         2.0951735200         1.4399324028         2.9115439871         2.6807689128        -3.4449709241
        0.5100000000        -0.7308751886         2.0561562234         1.4093044805         2.9013364773         1.8829210221        -4.1961006327
        0.5150000000        -0.8547800242         2.0189600979         1.3914381925         2.9243033744         1.4175097525        -4.9074630750
        0.5200000000        -0.9705839424         1.9839766058         1.3837812120         2.9294071293         1.2180477798        -5.5723165298
        0.5250000000        -1.0771894466         1.9515811591         1.3531532897         2.9217514970         0.4201998891        -6.1843600511
        0.5300000000        -1.1735862159         1.9221278437         1.3403916554         2.9243033744         0.0877632680        -6.7377931825
        0.5350000000        -1.2588606790         1.8959441215         1.3225253674         2.9217514970        -0.3776480016        -7.2273709302
        0.5400000000        -1.3322046732         1.8733256433         1.3608102703         2.9370627617         0.6196618618        -7.6484534699
        0.5450000000        -1.3929231032         1.8545313237         1.3378393285         2.9268552519         0.0212759438        -7.9970501202
        0.5500000000        -1.4404405285         1.8397788341         1.3301823480         2.9243033744        -0.1781860289        -8.2698571623
        0.5550000000        -1.4743066172         1.8292406714         1.3378393285         2.9268552519         0.0212759438        -8.4642891507
        0.5600000000        -1.4942004137         1.8230409484         1.3454963091         2.9345108842         0.2207379164        -8.5785034152
        0.5650000000        -1.4999333807         1.8212530335         1.3378393285         2.9294071293         0.0212759438        -8.6114175251
        0.5700000000        -1.4914511856         1.8238981335         1.3378393285         2.9268552519         0.0212759438        -8.5627195467
        0.5750000000        -1.4688342159         1.8309448819         1.3403916554         2.9294071293         0.0877632680        -8.4328710005
        0.5800000000        -1.4322968171         1.8423099480         1.3378393285         2.9217514970         0.0212759438        -8.2231024864
        0.5850000000        -1.3821852612         1.8578596420         1.3429439823         2.9243033744         0.1542505922        -7.9354020218
        0.5900000000        -1.3189744653         1.8774124489         1.3301823480         2.9217514970        -0.1781860289        -7.5724962001
        0.5950000000        -1.2432634904         1.9007423879         1.2791358108         2.9294071293        -1.5079325135        -7.1378243508
        0.6000000000        -1.1557698642         1.9275830671         1.0928159503         2.8962327224        -6.3615071820        -6.6355059441
        0.6050000000        -1.0573227809         1.9576322841         1.1157868920         2.8809214576        -5.7631212640        -6.0703015498
        0.6100000000        -0.9488552429         1.9905570137         1.1362055069         2.8630583154        -5.2312226702        -5.4475677204
        0.6150000000        -0.8313952181         2.0259986277         1.1566241217         2.8426432957        -4.6993240763        -4.7732062262
        0.6200000000        -0.7060558982         2.0635781989         1.1795950634         2.8273320310        -4.1009381583        -4.0536081230
        0.6250000000        -0.5740251485         2.1029017575         1.1923566977         2.8145726437        -3.7685015372        -3.2955931828
        0.6300000000        -0.4365542502         2.1435653912         1.1949090246         2.7967095015        -3.7020142129        -2.5063452615
        0.6350000000        -0.2949460419         2.1851600976         1.1872520440         2.7762944818        -3.9014761856        -1.6933442159
        0.6400000000        -0.1505425723         2.2272763264         1.1821473903         2.7609832170        -4.0344508341        -0.8642950160
        0.6450000000        -0.0047123812         2.5000000000         1.1872520440         2.7507757072        -3.9014761856        -0.0270547231
        0.6500000000         0.1411624700         2.7493435762         1.2076706589         2.7431200748        -3.3695775918         0.8104419726
        0.6550000000         0.2856994968         2.7977206093         1.2102229857         2.7227050552        -3.3030902676         1.6402579513
        0.6600000000         0.4275288937         2.8448113335         1.2076706589         2.7124975453        -3.3695775918         2.4545288845
        0.6650000000         0.5653065156         2.8902047065         1.2459555617         2.7022900355        -2.3722677284         3.2455377675
