% f=1.90Hz  n_cycles=5  N_total=526  dt=0.005000
% Amp=1.0000V  K_lin=7.165500
Time[s]              Vcmd[V]              Vc[V]                Vg[V]                Pot[V]               Omega[rad/s]         Omega_target[rad/s] 
        0.0000000000         0.0000000000         2.5000000000         1.3352870017         2.4751729416        -0.0608359017         0.0000000000
        0.0050000000         0.0596548214         2.7602040897         1.3378393285         2.4751729416         0.0056514226         0.4274566227
        0.0100000000         0.1190971601         2.7836915339         1.3378393285         2.4751729416         0.0056514226         0.8533907007
        0.0150000000         0.1781152903         2.8071992118         1.3352870017         2.4751729416        -0.0608359017         1.2762851124
        0.0200000000         0.2364989970         2.8306428634         1.3352870017         2.4675173092        -0.0608359017         1.6946335632
        0.0250000000         0.2940403252         2.8539363860         1.3327346748         2.4751729416        -0.1273232259         2.1069459505
        0.0300000000         0.3505343202         2.8769920943         1.3352870017         2.4751729416        -0.0608359017         2.5117536713
        0.0350000000         0.4057797577         2.8997210172         1.3352870017         2.4777248191        -0.0608359017         2.9076148536
        0.0400000000         0.4595798606         2.9220332333         1.3378393285         2.4726210642         0.0056514226         3.2931194913
        0.0450000000         0.5117430001         2.9438382471         1.4041998268         2.4853804515         1.7343218525         3.6668944673
        0.0500000000         0.5620833779         2.9650454062         1.4118568074         2.4879323289         1.9337838251         4.0276084440
        0.0550000000         0.6104216880         2.9855643611         1.3990951731         2.4955879613         1.6013472040         4.3739766052
        0.0600000000         0.6565857558         3.0053055657         1.3965428462         2.4981398388         1.5348598798         4.7047652328
        0.0650000000         0.7004111508         3.0241808166         1.4297230954         2.5057954711         2.3991950947         5.0187961009
        0.0700000000         0.7417417727         3.0421038295         1.4067521537         2.5185548584         1.8008091767         5.3149506726
        0.0750000000         0.7804304073         3.0589908456         1.4424847297         2.5262104908         2.7316317159         5.5921740838
        0.0800000000         0.8163392507         3.0747612641         1.4399324028         2.5338661232         2.6651443916         5.8494789010
        0.0850000000         0.8493404003         3.0893382911         1.4501417102         2.5466255105         2.9310936885         6.0859486381
        0.0900000000         0.8793163102         3.1026495973         1.4399324028         2.5491773879         2.6651443916         6.3007410207
        0.0950000000         0.9061602102         3.1146279715         1.4680079982         2.5644886527         3.3965049581         6.4930909863
        0.1000000000         0.9297764859         3.1252119606         1.4552463639         2.5772480400         3.0640683370         6.6623134096
        0.1050000000         0.9500810191         3.1343464809         1.4705603251         2.5823517949         3.4629922823         6.8078055424
        0.1100000000         0.9670014878         3.1419833887         1.4654556714         2.6002149371         3.3300176339         6.9290491606
        0.1150000000         0.9804776234         3.1480819966         1.4782173056         2.6078705695         3.6624542550         7.0256124103
        0.1200000000         0.9904614257         3.1526095230         1.4833219594         2.6333893441         3.7954289035         7.0971513458
        0.1250000000         0.9969173337         3.1555414627         1.5011882474         2.6487006088         4.2608401731         7.1434111549
        0.1300000000         0.9998223524         3.1568618693         1.4807696325         2.6563562412         3.7289415793         7.1642270660
        0.1350000000         0.9991661343         3.1565635415         1.5037405742         2.6691156285         4.3273274973         7.1595249356
        0.1400000000         0.9949510170         3.1546481073         1.4935312668         2.6869787707         4.0613782004         7.1293215122
        0.1450000000         0.9871920140         3.1511260054         1.5062929011         2.7073937904         4.3938148215         7.0737243763
        0.1500000000         0.9759167619         3.1460163622         1.5037405742         2.7176013002         4.3273274973         6.9929315577
        0.1550000000         0.9611654218         3.1393467699         1.5088452279         2.7405681974         4.4603021457         6.8872308298
        0.1600000000         0.9429905359         3.1311529703         1.5267115159         2.7635350945         4.9257134153         6.7569986849
        0.1650000000         0.9214568408         3.1214784538         1.5216068622         2.7737426043         4.7927387669         6.6026989929
        0.1700000000         0.8966410368         3.1103739844         1.5318161696         2.7992613789         5.0586880638         6.4248813491
        0.1750000000         0.8686315144         3.0978970612         1.5190545354         2.8196763986         4.7262514427         6.2241791167
        0.1800000000         0.8375280400         3.0841113316         1.5292638428         2.8375395408         4.9922007396         6.0013071709
        0.1850000000         0.8034414001         3.0690859678         1.5292638428         2.8528508056         4.9922007396         5.7570593525
        0.1900000000         0.7664930068         3.0528950205         1.5292638428         2.8707139478         4.9922007396         5.4923056403
        0.1950000000         0.7268144655         3.0356167625         1.5292638428         2.8911289674         4.9922007396         5.2079890524
        0.2000000000         0.6845471059         3.0173330328         1.5292638428         2.9089921097         4.9922007396         4.9051222875
        0.2050000000         0.6398414790         2.9981285930         1.5343684965         2.9345108842         5.1251753880         4.5847841174
        0.2100000000         0.5928568202         2.9780905036         1.5318161696         2.9498221490         5.0586880638         4.2481155449
        0.2150000000         0.5437604828         2.9573075277         1.5241591891         2.9676852912         4.8592260911         3.8963157394
        0.2200000000         0.4927273415         2.9358695683         1.5190545354         2.9753409236         4.7262514427         3.5306377659
        0.2250000000         0.4399391699         2.9138671425         1.5369208233         3.0034115756         5.1916627122         3.1523841216
        0.2300000000         0.3855839923         2.8913908961         1.5113975548         3.0263784728         4.5267894700         2.7629020967
        0.2350000000         0.3298554149         2.8685311596         1.5139498816         3.0365859826         4.5932767942         2.3635789752
        0.2400000000         0.2729519355         2.8453775457         1.5139498816         3.0570010023         4.5932767942         1.9558370939
        0.2450000000         0.2150762370         2.8220185887         1.5190545354         3.0876235318         4.7262514427         1.5411287763
        0.2500000000         0.1564344650         2.7985414235         1.5062929011         3.1003829191         4.3938148215         1.1209311592
        0.2550000000         0.0972354939         2.7750315022         1.4986359205         3.1131423064         4.1943528488         0.6967409317
        0.2600000000         0.0376901827         2.7515723473         1.5062929011         3.1386610810         4.3938148215         0.2700690039
        0.2650000000        -0.0219893761         2.2509015917         1.5062929011         3.1514204683         4.3938148215        -0.1575648744
        0.2700000000        -0.0815906116         2.2261989939         1.4858742862         3.1616279781         3.8619162277        -0.5846375272
        0.2750000000        -0.1409012319         2.2014381038         1.4271707685         3.1667317330         2.3327077705        -1.0096277774
        0.2800000000        -0.1997099805         2.1767068036         1.3965428462         3.1871467527         1.5348598798        -1.4310218654
        0.2850000000        -0.2578073882         2.1520948167         1.3710195777         3.1845948752         0.8699866375        -1.8473188402
        0.2900000000        -0.3149865197         2.1276934372         1.3403916554         3.1871467527         0.0721387468        -2.2570359066
        0.2950000000        -0.3710437102         2.1035952240         1.3225253674         3.1871467527        -0.3932725228        -2.6587137057
        0.3000000000        -0.4257792916         2.0798936603         1.3378393285         3.1896986301         0.0056514226        -3.0509215137
        0.3050000000        -0.4789983026         2.0566827751         1.3327346748         3.1794911203        -0.1273232259        -3.4322623376
        0.3100000000        -0.5305111843         2.0340567284         1.3352870017         3.1845948752        -0.0608359017        -3.8013778911
        0.3150000000        -0.5801344544         2.0121093572         1.3429439823         3.1896986301         0.1386260710        -4.1569534329
        0.3200000000        -0.6276913613         1.9909336863         1.3072114063         3.1871467527        -0.7921964682        -4.4977224493
        0.3250000000        -0.6730125135         1.9706214029         1.2178799663         3.1743873654        -3.1192528161        -4.8224711656
        0.3300000000        -0.7159364830         1.9512623005         1.2612695229         3.1590761006        -1.9889683042        -5.1300428691
        0.3350000000        -0.7563103803         1.9329436940         1.2663741766         3.1590761006        -1.8559936558        -5.4193420297
        0.3400000000        -0.7939903986         1.9157498133         1.2229846200         3.1488685908        -2.9862781676        -5.6893382015
        0.3450000000        -0.8288423269         1.8997611814         1.2229846200         3.1361092035        -2.9862781676        -5.9390696934
        0.3500000000        -0.8607420270         1.8850539844         1.2153276394         3.1259016937        -3.1857401403        -6.1676469945
        0.3550000000        -0.8895758764         1.8716994446         1.2025660052         3.1080385515        -3.5181767615        -6.3742559422
        0.3600000000        -0.9152411726         1.8597632042         1.2204322931         3.1003829191        -3.0527654919        -6.5581606224
        0.3650000000        -0.9376464993         1.8493047331         1.2025660052         3.0927272867        -3.5181767615        -6.7187059907
        0.3700000000        -0.9567120516         1.8403767705         1.1898043709         3.0723122670        -3.8506133826        -6.8553202054
        0.3750000000        -0.9723699204         1.8330248127         1.2000136783         3.0518972474        -3.5846640857        -6.9675166646
        0.3800000000        -0.9845643345         1.8272866585         1.1770427366         3.0442416150        -4.1830500037        -7.0548957391
        0.3850000000        -0.9932518590         1.8231920210         1.1795950634         3.0289303502        -4.1165626795        -7.1171461960
        0.3900000000        -0.9984015501         1.8207622178         1.2051183320         3.0136190855        -3.4516894372        -7.1540463073
        0.3950000000        -0.9999950652         1.8200099443         1.1821473903         3.0034115756        -4.0500753553        -7.1654646397
        0.4000000000        -0.9980267284         1.8209391380         1.1642811023         2.9804446785        -4.5154866249        -7.1513605226
        0.4050000000        -0.9925035507         1.8235449357         1.1642811023         2.9600296588        -4.5154866249        -7.1117841929
        0.4100000000        -0.9834452050         1.8278137266         1.1515194680         2.9421665166        -4.8479232460        -7.0468766164
        0.4150000000        -0.9708839558         1.8337232973         1.1617287755         2.9294071293        -4.5819739491        -6.9568689854
        0.4200000000        -0.9548645447         1.8412430673         1.1566241217         2.9089921097        -4.7149485975        -6.8420818954
        0.4250000000        -0.9354440308         1.8503344082         1.1464148143         2.8911289674        -4.9808978944        -6.7029242029
        0.4300000000        -0.9126915874         1.8609510387         1.1489671412         2.8732658252        -4.9144105702        -6.5398915695
        0.4350000000        -0.8866882557         1.8730394861         1.1591764486         2.8528508056        -4.6484612733        -6.3535646962
        0.4400000000        -0.8575266562         1.8865396038         1.1489671412         2.8400914183        -4.9144105702        -6.1446072550
        0.4450000000        -0.8253106587         1.9013851338         1.1515194680         2.8145726437        -4.8479232460        -5.9137635249
        0.4500000000        -0.7901550124         1.9175043022         1.1413101606         2.7941576240        -5.1138725429        -5.6618557412
        0.4550000000        -0.7521849371         1.9348204365         1.1591764486         2.7762944818        -4.6484612733        -5.3897811665
        0.4600000000        -0.7115356772         1.9532525940         1.1362055069         2.7558794621        -5.2468471913        -5.0985088950
        0.4650000000        -0.6683520202         1.9727161909         1.1540717949         2.7482238297        -4.7814359218        -4.7890764005
        0.4700000000        -0.6227877805         1.9931236232         1.1464148143         2.7252569326        -4.9808978944        -4.4625858411
        0.4750000000        -0.5750052520         2.0143848711         1.1617287755         2.7099456679        -4.5819739491        -4.1202001335
        0.4800000000        -0.5251746300         2.0364080808         1.1515194680         2.6895306482        -4.8479232460        -3.7631388110
        0.4850000000        -0.4734734044         2.0591001179         1.1617287755         2.6793231383        -4.5819739491        -3.3926736793
        0.4900000000        -0.4200857284         2.0823670889         1.1617287755         2.6563562412        -4.5819739491        -3.0101242869
        0.4950000000        -0.3652017619         2.1061148270         1.1591764486         2.6359412215        -4.6484612733        -2.6168532248
        0.5000000000        -0.3090169944         2.1302493416         1.1617287755         2.6231818342        -4.5819739491        -2.2142612732
        0.5050000000        -0.2517315487         2.1546772298         1.1719380829         2.6053186920        -4.3160246522        -1.8037824120
        0.5100000000        -0.1935494681         2.1793060503         1.1744904097         2.5823517949        -4.2495373279        -1.3868787133
        0.5150000000        -0.1346779895         2.2040446606         1.1744904097         2.5772480400        -4.2495373279        -0.9650351337
        0.5200000000        -0.0753268055         2.2288035189         1.1846997172         2.5568330203        -3.9835880310        -0.5397542250
        0.5250000000        -0.0157073173         2.2534949513         1.1795950634         2.5440736330        -4.1165626795        -0.1125507822
        0.5300000000         0.0439681183         2.7540369024         1.1974613514         2.5338661232        -3.6511514099         0.3150535518
        0.5350000000         0.1034869453         2.7775052722         1.1949090246         2.5160029810        -3.7176387341         0.7415357062
        0.5400000000         0.1626371652         2.8010157140         1.2459555617         2.5083473486        -2.3878922496         1.1653766072
        0.5450000000         0.2212080928         2.8244844917         1.3174207137         2.5057954711        -0.5262471713         1.5850665889
        0.5500000000         0.2789911060         2.8478259636         1.3199730405         2.4955879613        -0.4597598470         1.9991107703
        0.5550000000         0.3357803894         2.8709528338         1.3327346748         2.4879323289        -0.1273232259         2.4060343802
        0.5600000000         0.3913736668         2.8937764385         1.3327346748         2.4853804515        -0.1273232259         2.8043880097
        0.5650000000         0.4455729224         2.9162070717         1.3403916554         2.4955879613         0.0721387468         3.1927527753
        0.5700000000         0.4981851053         2.9381543502         1.3327346748         2.4955879613        -0.1273232259         3.5697453723
        0.5750000000         0.5490228180         2.9595276200         1.3378393285         2.4955879613         0.0056514226         3.9340230024
        0.5800000000         0.5979049831         2.9802364052         1.3276300211         2.4879323289        -0.2602978743         4.2842881561
        0.5850000000         0.6446574886         3.0001908972         1.4118568074         2.4930360838         1.9337838251         4.6192932348
        0.5900000000         0.6891138084         3.0193024850         1.4169614611         2.5006917162         2.0667584736         4.9378449940
        0.5950000000         0.7311155947         3.0374843217         1.3990951731         2.5134511035         1.6013472040         5.2388087940
        0.6000000000         0.7705132428         3.0546519233         1.4220661148         2.5160029810         2.1997331220         5.5211126411
        0.6050000000         0.8071664232         3.0707237957         1.4373800759         2.5262104908         2.5986570674         5.7837510058
        0.6100000000         0.8409445823         3.0856220796         1.4246184417         2.5466255105         2.2662204463         6.0257884045
        0.6150000000         0.8717274065         3.0992732069         1.4603510177         2.5440736330         3.1970429854         6.2463627316
        0.6200000000         0.8994052516         3.1116085569         1.4526940371         2.5542811429         2.9975810128         6.4446883301
        0.6250000000         0.9238795325         3.1225651005         1.4705603251         2.5823517949         3.4629922823         6.6200587902
        0.6300000000         0.9450630752         3.1320860206         1.4654556714         2.5849036724         3.3300176339         6.7718494652
        0.6350000000         0.9628804266         3.1401212946         1.4782173056         2.5925593047         3.6624542550         6.8995196965
        0.6400000000         0.9772681236         3.1466282265         1.4731126519         2.6155262019         3.5294796066         7.0026147394
        0.6450000000         0.9881749191         3.1515719149         1.4731126519         2.6231818342         3.5294796066         7.0807673829
        0.6500000000         0.9955619646         3.1549256453         1.4960835936         2.6435968539         4.1278655246         7.1336992574
        0.6550000000         0.9994029484         3.1566711971         1.4807696325         2.6589081187         3.7289415793         7.1612218264
        0.6600000000         0.9996841893         3.1567990551         1.5037405742         2.6665637511         4.3273274973         7.1632370583
        0.6650000000         0.9964046856         3.1553085215         1.5216068622         2.6895306482         4.7927387669         7.1397377750
