% f=2.60Hz  n_cycles=5  N_total=384  dt=0.005000
% Amp=2.0000V  K_lin=4.959600
Time[s]              Vcmd[V]              Vc[V]                Vg[V]                Pot[V]               Omega[rad/s]         Omega_target[rad/s] 
        0.0000000000         0.0000000000         2.5000000000         1.3454963091         1.6381571351         0.2051133952         0.0000000000
        0.0050000000         0.1631812231         2.7656957267         1.3454963091         1.6330533802         0.2051133952         0.8093135943
        0.0100000000         0.3252743304         2.8164156797         1.3327346748         1.6253977478        -0.1273232259         1.6132305690
        0.0150000000         0.4851984616         2.8664885019         1.3403916554         1.6279496252         0.0721387468         2.4063902901
        0.0200000000         0.6418872196         2.9155787721         1.3378393285         1.6305015027         0.0056514226         3.1835038544
        0.0250000000         0.7942957813         2.9633570388         1.3403916554         1.6305015027         0.0721387468         3.9393893568
        0.0300000000         0.9414078643         3.0095020711         1.3429439823         1.6356052576         0.1386260710         4.6690064439
        0.0350000000         1.0822425043         3.0537030705         1.3378393285         1.6305015027         0.0056514226         5.3674899241
        0.0400000000         1.2158605954         3.0956618249         1.3659149240         1.6330533802         0.7370119891         6.0301822089
        0.0450000000         1.3413711531         3.1350947899         1.4807696325         1.6458127674         3.7289415793         6.6526643708
        0.0500000000         1.4579372548         3.1717350800         1.4144091342         1.6509165224         2.0002711494         7.2307856091
        0.0550000000         1.5647816212         3.2053343540         1.4246184417         1.6560202773         2.2662204463         7.7606909283
        0.0600000000         1.6611917984         3.2356645795         1.4756649788         1.6636759097         3.5959669308         8.2388468433
        0.0650000000         1.7465249096         3.2625196616         1.4501417102         1.6815390519         2.9310936885         8.6620649418
        0.0700000000         1.8202119414         3.2857169210         1.4884266131         1.6891946843         3.9284035519         9.0275231444
        0.0750000000         1.8817615379         3.3050984111         1.4935312668         1.7045059490         4.0613782004         9.3327845234
        0.0800000000         1.9307632777         3.3205320593         1.4960835936         1.7249209687         4.1278655246         9.5758135519
        0.0850000000         1.9668904100         3.3319126258         1.5292638428         1.7402322334         4.9922007396         9.7549896774
        0.0900000000         1.9899020340         3.3391624686         1.5088452279         1.7555434982         4.4603021457         9.8691181276
        0.0950000000         1.9996447048         3.3422321095         1.5318161696         1.7708547629         5.0586880638         9.9174378777
        0.1000000000         1.9960534569         3.3411005947         1.5420254771         1.7912697826         5.3246373607         9.8996267246
        0.1050000000         1.9791522372         3.3357756484         1.5369208233         1.8116848023         5.1916627122         9.8158034356
        0.1100000000         1.9490537456         3.3262936161         1.5598917651         1.8601704740         5.7900486303         9.6665269565
        0.1150000000         1.9059586830         3.3127191989         1.5879673605         1.8576185965         6.5214091968         9.4527926844
        0.1200000000         1.8501544137         3.2951449826         1.5598917651         1.8754817388         5.7900486303         9.1760258300
        0.1250000000         1.7820130484         3.2736907628         1.5726533993         1.8907930035         6.1224852514         8.8380719147
        0.1300000000         1.7019889636         3.2485026753         1.5777580530         1.9265192879         6.2554598999         8.4411844638
        0.1350000000         1.6106157714         3.2197521376         1.5752057262         1.9520380625         6.1889725756         7.9880099799
        0.1400000000         1.5085027615         3.1876346116         1.5828627068         1.9699012047         6.3884345483         7.4815702958
        0.1450000000         1.3963308380         3.1523681983         1.5905196873         2.0005237343         6.5878965210         6.9252424241
        0.1500000000         1.2748479795         3.1141920769         1.5752057262         2.0183868765         6.1889725756         6.3227360391
        0.1550000000         1.1448642512         3.0733648014         1.6211476096         2.0464575285         7.3857444117         5.6780687402
        0.1600000000         1.0072464033         3.0301624688         1.5777580530         2.0617687933         6.2554598999         4.9955392617
        0.1650000000         0.8629120914         2.9848767750         1.5879673605         2.0974950777         6.5214091968         4.2796988083
        0.1700000000         0.7128237574         2.9378129732         1.5879673605         2.1204619748         6.5214091968         3.5353207073
        0.1750000000         0.5579822121         2.8892877509         1.5854150336         2.1383251170         6.4549218725         2.7673685790
        0.1800000000         0.3994199610         2.8396270433         1.5598917651         2.1638438916         5.7900486303         1.9809632387
        0.1850000000         0.2381943202         2.7891637980         1.5701010725         2.1868107888         6.0559979272         1.1813485504
        0.1900000000         0.0753803653         2.7382357086         1.5777580530         2.2148814408         6.2554598999         0.3738564599
        0.1950000000        -0.0879362366         2.2560435829         1.5445778039         2.2327445830         5.3911246849        -0.4361285592
        0.2000000000        -0.2506664671         2.1966490675         1.5445778039         2.2582633576         5.3911246849        -1.2432054104
        0.2050000000        -0.4117252175         2.1386531880         1.5139498816         2.2761264998         4.5932767942        -2.0419923889
        0.2100000000        -0.5700385249         2.0823807126         1.4833219594         2.2837821322         3.7954289035        -2.8271630683
        0.2150000000        -0.7245507334         2.0281355788         1.4399324028         2.2888858871         2.6651443916        -3.5934818174
        0.2200000000        -0.8742315333         1.9762009897         1.3990951731         2.3041971519         1.6013472040        -4.3358387126
        0.2250000000        -1.0180828315         1.9268396114         1.3557056165         2.3016452744         0.4710626921        -5.0492836111
        0.2300000000        -1.1551454068         1.8802938377         1.2867927914         2.2990933970        -1.3240950620        -5.7290591598
        0.2350000000        -1.2845053064         1.8367860944         1.2867927914         2.3093009068        -1.3240950620        -6.3706325174
        0.2400000000        -1.4052999396         1.7965191621         1.2740311571         2.2990933970        -1.6565316831        -6.9697255804
        0.2450000000        -1.5167238306         1.7596765021         1.2459555617         2.2914377646        -2.3878922496        -7.5223435101
        0.2500000000        -1.6180339887         1.7264225720         1.2485078886         2.2888858871        -2.3214049254        -8.0248013706
        0.2550000000        -1.7085548634         1.6969031248         1.2306416006         2.2735746224        -2.7868161950        -8.4737487005
        0.2600000000        -1.7876828483         1.6712454826         1.1846997172         2.2633671125        -3.9835880310        -8.8661918544
        0.2650000000        -1.8548903067         1.6495587826         1.1949090246         2.2557114802        -3.7176387341        -9.1995139650
        0.2700000000        -1.9097290895         1.6319341916         1.1795950634         2.2327445830        -4.1165626795        -9.4714923923
        0.2750000000        -1.9518335239         1.6184450874         1.1617287755         2.2174333183        -4.5819739491        -9.6803135450
        0.2800000000        -1.9809228514         1.6091472065         1.1540717949         2.1995701761        -4.7814359218        -9.8245849738
        0.2850000000        -1.9968031002         1.6040787562         1.1336531800         2.1791551564        -5.3133345156        -9.9033446558
        0.2900000000        -1.9993683786         1.6032604920         1.1362055069         2.1638438916        -5.2468471913        -9.9160674103
        0.2950000000        -1.9886015808         1.6066957602         1.1413101606         2.1408769945        -5.1138725429        -9.8626684001
        0.3000000000        -1.9645745015         1.6143705041         1.1183392189         2.1179100974        -5.7122584609        -9.7435036974
        0.3050000000        -1.9274473566         1.6262532357         1.1106822383         2.1000469552        -5.9117204336        -9.5593679097
        0.3100000000        -1.8774677153         1.6422949722         1.1055775846         2.0694244256        -6.0446950821        -9.3114888808
        0.3150000000        -1.8149688491         1.6624291363         1.1030252578         2.0388018961        -6.1111824063        -9.0015195039
        0.3200000000        -1.7403675093         1.6865714227         1.0877112966         2.0234906314        -6.5101063517        -8.6315266993
        0.3250000000        -1.6541611485         1.7146196297         1.1030252578         2.0081793666        -6.1111824063        -8.2039776323
        0.3300000000        -1.5569246031         1.7464534566         1.0979206040         1.9775568371        -6.2441570547        -7.7217232617
        0.3350000000        -1.4493062604         1.7819342703         1.0749496623         1.9469343076        -6.8425429728        -7.1879793290
        0.3400000000        -1.3320237349         1.8209048414         1.0979206040         1.9290711654        -6.2441570547        -6.6063049155
        0.3450000000        -1.2058590834         1.8631890543         1.0953682772         1.9010005134        -6.3106443790        -5.9805787099
        0.3500000000        -1.0716535900         1.9085915971         1.0723973355         1.8831373711        -6.9090302970        -5.3149731448
        0.3550000000        -0.9303021562         1.9568976385         1.1004729309         1.8525148416        -6.1776697305        -4.6139265737
        0.3600000000        -0.7827473337         2.0078725023         1.0979206040         1.8346516994        -6.2441570547        -3.8821136761
        0.3650000000        -0.6299730393         2.0612613533         1.0775019892         1.8116848023        -6.7760556486        -3.1244142858
        0.3700000000        -0.4729979940         2.1167889150         1.1234438726         1.7938216601        -5.5792838125        -2.3458808513
        0.3750000000        -0.3128689301         2.1741592425         1.1157868920         1.7708547629        -5.7787457852        -1.5517047456
        0.3800000000        -0.1506536111         2.2330555824         1.1030252578         1.7427841109        -6.1111824063        -0.7471816494
        0.3850000000         0.0125662879         2.5000000000         1.1208915457         1.7172653363        -5.6457711367         0.0623237616
        0.3900000000         0.1757023931         2.7696125334         1.1311008532         1.7045059490        -5.3798218398         0.8714135888
        0.3950000000         0.3376668894         2.8202947136         1.1438624875         1.6866428068        -5.0473852187         1.6746927048
        0.4000000000         0.4973797743         2.8703038011         1.1949090246         1.6662277871        -3.7176387341         2.4668047288
        0.4050000000         0.6537760593         2.9193047534         1.2382985811         1.6560202773        -2.5873542223         3.2424677438
        0.4100000000         0.8058128714         2.9669686718         1.2689265034         1.6509165224        -1.7895063316         3.9965095171
        0.4150000000         0.9524764073         3.0129750500         1.3021067526         1.6432608900        -0.9251711166         4.7239019898
        0.4200000000         1.0927886935         3.0570139820         1.3429439823         1.6432608900         0.1386260710         5.4197948041
        0.4250000000         1.2258141073         3.0987883113         1.3403916554         1.6381571351         0.0721387468         6.0795476466
        0.4300000000         1.3506656162         3.1380157053         1.3378393285         1.6432608900         0.0056514226         6.6987611903
        0.4350000000         1.4665106924         3.1744306396         1.3429439823         1.6509165224         0.1386260710         7.2733064303
        0.4400000000         1.5725768643         3.2077862741         1.4629033445         1.6509165224         3.2635303097         7.7993522160
        0.4450000000         1.6681568672         3.2378562082         1.4322754222         1.6560202773         2.4656824189         8.2733907987
        0.4500000000         1.7526133601         3.2644360973         1.4195137880         1.6662277871         2.1332457978         8.6922612207
        0.4550000000         1.8253831748         3.2873451204         1.4705603251         1.6687796646         3.4629922823         9.0531703938
        0.4600000000         1.8859810718         3.3064272827         1.4807696325         1.6891946843         3.7289415793         9.3537117236
        0.4650000000         1.9340029755         3.3215525442         1.4960835936         1.7096097039         4.1278655246         9.5918811574
        0.4700000000         1.9691286691         3.3326177632         1.5190545354         1.7223690912         4.7262514427         9.7660905471
        0.4750000000         1.9911239292         3.3395474468         1.5037405742         1.7376803560         4.3273274973         9.8751782393
        0.4800000000         1.9998420884         3.3422943007         1.5318161696         1.7555434982         5.0586880638         9.9184168217
        0.4850000000         1.9952250127         3.3408395744         1.5471301308         1.7836141502         5.4576120091         9.8955179731
        0.4900000000         1.9773034895         3.3351931984         1.5394731502         1.7938216601         5.2581500365         9.8066343864
        0.4950000000         1.9461970220         3.3253937113         1.5598917651         1.8218923121         5.7900486303         9.6523587501
        0.5000000000         1.9021130326         3.3115079788         1.5471301308         1.8346516994         5.4576120091         9.4337197964
        0.5050000000         1.8453454797         3.2936307061         1.5649964188         1.8576185965         5.9230232787         9.1521754413
        0.5100000000         1.7762728976         3.2718837483         1.5598917651         1.8780336162         5.7900486303         8.8096030631
        0.5150000000         1.6953558722         3.2464152259         1.5777580530         1.9010005134         6.2554598999         8.4082869836
        0.5200000000         1.6031339697         3.2173984521         1.5726533993         1.9239674105         6.1224852514         7.9509032363
        0.5250000000         1.5002221393         3.1850306821         1.5598917651         1.9418305527         5.7900486303         7.4405017219
        0.5300000000         1.3873066116         3.1495316958         1.5879673605         1.9724530822         6.5214091968         6.8804858710
        0.5350000000         1.2651403238         3.1111422250         1.5726533993         1.9979718568         6.1224852514         6.2745899500
        0.5400000000         1.1345378983         3.0701222395         1.5726533993         2.0209387539         6.1224852514         5.6268541602
        0.5450000000         0.9963702107         3.0267491068         1.5879673605         2.0464575285         6.5214091968         4.9415976969
        0.5500000000         0.8515585831         2.9813156392         1.5803103799         2.0745281806         6.3219472241         4.2233899489
        0.5550000000         0.7010686404         2.9341280456         1.5649964188         2.0872875679         5.9230232787         3.4770200288
        0.5600000000         0.5459038710         2.8855038035         1.5675487456         2.1128063424         5.9895106030         2.7074648388
        0.5650000000         0.3870989361         2.8357694672         1.5930720142         2.1383251170         6.6543838452         1.9198558835
        0.5700000000         0.2257127697         2.7852584301         1.5522347845         2.1561882593         5.5905866576         1.1194450528
        0.5750000000         0.0628215182         2.7343086565         1.5471301308         2.1791551564         5.4576120091         0.3115696014
        0.5800000000        -0.1004886364         2.2514328557         1.5598917651         2.1995701761         5.7900486303        -0.4983834409
        0.5850000000        -0.2631287182         2.1921339236         1.5369208233         2.2276408281         5.1916627122        -1.3050131907
        0.5900000000        -0.4240142198         2.1342593490         1.4960835936         2.2455039703         4.1278655246        -2.1029409247
        0.5950000000        -0.5820723337         2.0781322974         1.4654556714         2.2531596027         3.3300176339        -2.8868459460
        0.6000000000        -0.7362491054         2.0240551064         1.4424847297         2.2786783773         2.7316317159        -3.6515010630
        0.6050000000        -0.8855164621         1.9723093913         1.4169614611         2.2786783773         2.0667584736        -4.3918074453
        0.6100000000        -1.0288790676         1.9231562487         1.3837812120         2.2914377646         1.2024232586        -5.1028286235
        0.6150000000        -1.1653809593         1.8768365252         1.2587171960         2.2761264998        -2.0554556285        -5.7798234059
        0.6200000000        -1.2941119231         1.8335711240         1.3072114063         2.2761264998        -0.7921964682        -6.4182774940
        0.6250000000        -1.4142135624         1.7935613279         1.2612695229         2.2684708674        -1.9889683042        -7.0139335839
        0.6300000000        -1.5248850220         1.7569891255         1.2510602154         2.2710227449        -2.2549176011        -7.5628197552
        0.6350000000        -1.6253883289         1.7240175251         1.2510602154         2.2608152351        -2.2549176011        -8.0612759558
        0.6400000000        -1.7150533124         1.6947908528         1.2229846200         2.2608152351        -2.9862781676        -8.5059784081
        0.6450000000        -1.7932820736         1.6694350232         1.2127753126         2.2455039703        -3.2522274645        -8.8939617721
        0.6500000000        -1.8595529718         1.6480577842         1.1923566977         2.2327445830        -3.7841260584        -9.2226389188
        0.6550000000        -1.9134241031         1.6307489280         1.1744904097         2.2148814408        -4.2495373279        -9.4898181818
        0.6600000000        -1.9545362471         1.6175804709         1.1744904097         2.1868107888        -4.2495373279        -9.6937179713
        0.6650000000        -1.9826152621         1.6086067971         1.1311008532         2.1714995240        -5.3798218398        -9.8329786541
