% f=0.90Hz  n_cycles=5  N_total=1111  dt=0.005000
% Amp=1.0000V  K_lin=8.382100
Time[s]              Vcmd[V]              Vc[V]                Vg[V]                Pot[V]               Omega[rad/s]         Omega_target[rad/s] 
        0.0000000000         0.0000000000         2.5000000000         1.3378393285         1.1711635601         0.0139623381         0.0000000000
        0.0050000000         0.0282705668         2.5000000000         1.3352870017         1.1737154375        -0.0525249861         0.2369667177
        0.0100000000         0.0565185345         2.5000000000         1.3403916554         1.1762673150         0.0804496623         0.4737440079
        0.0150000000         0.0847213221         2.7795460945         1.3352870017         1.1711635601        -0.0525249861         0.7101425943
        0.0200000000         0.1128563849         2.7929798184         1.3429439823         1.1813710699         0.1469369865         0.9459735036
        0.0250000000         0.1409012319         2.8064373359         1.3327346748         1.1737154375        -0.1190123104         1.1810482162
        0.0300000000         0.1688334447         2.8199081673         1.3352870017         1.1737154375        -0.0525249861         1.4151788169
        0.0350000000         0.1966306946         2.8333816649         1.3352870017         1.1737154375        -0.0525249861         1.6481781453
        0.0400000000         0.2242707609         2.8468470166         1.3454963091         1.1788191925         0.2134243108         1.8798599454
        0.0450000000         0.2517315487         2.8602932507         1.3378393285         1.1711635601         0.0139623381         2.1100390141
        0.0500000000         0.2789911060         2.8737092414         1.3378393285         1.1737154375         0.0139623381         2.3385313499
        0.0550000000         0.3060276422         2.8870837142         1.3990951731         1.1762673150         1.6096581195         2.5651542996
        0.0600000000         0.3328195445         2.9004052525         1.4220661148         1.1788191925         2.2080440376         2.7897267041
        0.0650000000         0.3593453960         2.9136623045         1.3684672508         1.1762673150         0.8118102288         3.0120690439
        0.0700000000         0.3855839923         2.9268431911         1.3863335388         1.1915785797         1.2772214984         3.2320035817
        0.0750000000         0.4115143586         2.9399361144         1.4271707685         1.2017860896         2.3410186860         3.4493545053
        0.0800000000         0.4371157667         2.9529291670         1.3939905194         1.2068898445         1.4766834711         3.6639480676
        0.0850000000         0.4623677510         2.9658103417         1.4169614611         1.2017860896         2.0750693891         3.8756127260
        0.0900000000         0.4872501257         2.9785675430         1.4322754222         1.2170973543         2.4739933345         4.0841792788
        0.0950000000         0.5117430001         2.9911885984         1.4195137880         1.2324086191         2.1415567133         4.2894810013
        0.1000000000         0.5358267950         3.0036612711         1.4220661148         1.2273048642         2.2080440376         4.4913537782
        0.1050000000         0.5594822581         3.0159732737         1.4450370565         1.2426161289         2.8064299556         4.6896362356
        0.1100000000         0.5826904797         3.0281122829         1.4246184417         1.2477198838         2.2745313618         4.8841698696
        0.1150000000         0.6054329074         3.0400659543         1.4501417102         1.2630311486         2.9394046041         5.0747991730
        0.1200000000         0.6276913613         3.0518219394         1.4399324028         1.2706867810         2.6734553072         5.2613717595
        0.1250000000         0.6494480483         3.0633679028         1.4475893834         1.2859980457         2.8729172798         5.4437384859
        0.1300000000         0.6706855765         3.0746915402         1.4526940371         1.2936536781         3.0058919283         5.6217535711
        0.1350000000         0.6913869690         3.0857805982         1.4654556714         1.3115168203         3.3383285494         5.7952747125
        0.1400000000         0.7115356772         3.0966228941         1.4654556714         1.3242762076         3.3383285494         5.9641631999
        0.1450000000         0.7311155947         3.1072063373         1.4807696325         1.3395874724         3.7372524948         6.1282840266
        0.1500000000         0.7501110696         3.1175189509         1.4756649788         1.3523468597         3.6042778463         6.2875059967
        0.1550000000         0.7685069172         3.1275488949         1.4833219594         1.3625543695         3.8037398190         6.4417018308
        0.1600000000         0.7862884321         3.1372844894         1.4858742862         1.3727618793         3.8702271432         6.5907482670
        0.1650000000         0.8034414001         3.1467142391         1.4884266131         1.3880731441         3.9367144675         6.7345261599
        0.1700000000         0.8199521093         3.1558268583         1.4909789399         1.4033844088         4.0032017917         6.8729205756
        0.1750000000         0.8358073614         3.1646112960         1.4858742862         1.4110400412         3.8702271432         7.0058208837
        0.1800000000         0.8509944818         3.1730567618         1.5011882474         1.4314550609         4.2691510886         7.1331208459
        0.1850000000         0.8655013303         3.1811527525         1.4935312668         1.4442144482         4.0696891159         7.2547187003
        0.1900000000         0.8793163102         3.1888890779         1.4884266131         1.4620775904         3.9367144675         7.3705172436
        0.1950000000         0.8924283781         3.1962558877         1.5113975548         1.4799407326         4.5351003855         7.4804239083
        0.2000000000         0.9048270525         3.2032436979         1.5241591891         1.4952519974         4.8675370066         7.5843508365
        0.2050000000         0.9165024219         3.2098434166         1.5190545354         1.5131151396         4.7345623582         7.6822149507
        0.2100000000         0.9274451533         3.2160463704         1.5267115159         1.5462895465         4.9340243309         7.7739380198
        0.2150000000         0.9376464993         3.2218443291         1.5522347845         1.5564970564         5.5988975731         7.8594467218
        0.2200000000         0.9470983050         3.2272295309         1.5292638428         1.5743601986         5.0005116551         7.9386727023
        0.2250000000         0.9557930148         3.2321947057         1.5369208233         1.5947752183         5.1999736278         8.0115526293
        0.2300000000         0.9637236783         3.2367330983         1.5394731502         1.6202939929         5.2664609520         8.0780282438
        0.2350000000         0.9708839558         3.2408384893         1.5471301308         1.6381571351         5.4659229247         8.1380464061
        0.2400000000         0.9772681236         3.2445052162         1.5496824576         1.6534683998         5.5324102489         8.1915591386
        0.2450000000         0.9828710781         3.2477281912         1.5471301308         1.6764352970         5.4659229247         8.2385236640
        0.2500000000         0.9876883406         3.2505029189         1.5726533993         1.6968503166         6.1307961669         8.2789024397
        0.2550000000         0.9917160601         3.2528255114         1.5522347845         1.7096097039         5.5988975731         8.3126631875
        0.2600000000         0.9949510170         3.2546927016         1.5573394382         1.7453359884         5.7318722216         8.3397789194
        0.2650000000         0.9973906252         3.2561018544         1.5726533993         1.7606472531         6.1307961669         8.3602279598
        0.2700000000         0.9990329347         3.2570509763         1.5522347845         1.7785103953         5.5988975731         8.3739939618
        0.2750000000         0.9998766325         3.2575387220         1.5726533993         1.8040291699         6.1307961669         8.3810659211
        0.2800000000         0.9999210442         3.2575643996         1.6007289948         1.8346516994         6.8621567334         8.3814381846
        0.2850000000         0.9991661343         3.2571279726         1.5701010725         1.8576185965         6.0643088427         8.3751104547
        0.2900000000         0.9976125064         3.2562300602         1.5777580530         1.8652742289         6.2637708154         8.3620877896
        0.2950000000         0.9952614022         3.2548719353         1.5624440919         1.8882411261         5.8648468700         8.3423805994
        0.3000000000         0.9921147013         3.2530555197         1.5854150336         1.9188636556         6.4632327881         8.3160046379
        0.3050000000         0.9881749191         3.2507833776         1.5854150336         1.9520380625         6.4632327881         8.2829809895
        0.3100000000         0.9834452050         3.2480587063         1.5777580530         1.9673493273         6.2637708154         8.2433360528
        0.3150000000         0.9779293398         3.2448853256         1.5854150336         1.9954199793         6.4632327881         8.1971015194
        0.3200000000         0.9716317329         3.2412676639         1.5879673605         2.0183868765         6.5297201123         8.1443143485
        0.3250000000         0.9645574185         3.2372107441         1.5828627068         2.0388018961         6.3967454638         8.0850167373
        0.3300000000         0.9567120516         3.2327201657         1.5828627068         2.0694244256         6.3967454638         8.0192560874
        0.3350000000         0.9481019037         3.2278020871         1.5777580530         2.0847356904         6.2637708154         7.9470849669
        0.3400000000         0.9387338577         3.2224632052         1.5803103799         2.1051507101         6.3302581396         7.8685610682
        0.3450000000         0.9286154021         3.2167107339         1.5803103799         2.1357732396         6.3302581396         7.7837471623
        0.3500000000         0.9177546257         3.2105523815         1.5905196873         2.1663957691         6.5962074365         7.6927110479
        0.3550000000         0.9061602102         3.2039963273         1.5854150336         2.1842589113         6.4632327881         7.5955254981
        0.3600000000         0.8938414242         3.1970511969         1.5854150336         2.2123295633         6.4632327881         7.4922682014
        0.3650000000         0.8808081149         3.1897260367         1.5854150336         2.2301927056         6.4632327881         7.3830217001
        0.3700000000         0.8670707012         3.1820302886         1.5828627068         2.2608152351         6.3967454638         7.2678733242
        0.3750000000         0.8526401644         3.1739737635         1.5879673605         2.2837821322         6.5297201123         7.1469151216
        0.3800000000         0.8375280400         3.1655666151         1.5752057262         2.3016452744         6.1972834912         7.0202437844
        0.3850000000         0.8217464086         3.1568193132         1.5828627068         2.3297159265         6.3967454638         6.8879605718
        0.3900000000         0.8053078857         3.1477426174         1.5803103799         2.3577865785         6.3302581396         6.7501712288
        0.3950000000         0.7882256120         3.1383475511         1.5905196873         2.3858572306         6.5962074365         6.6069859023
        0.4000000000         0.7705132428         3.1286453753         1.5828627068         2.4062722502         6.3967454638         6.4585190523
        0.4050000000         0.7521849371         3.1186475632         1.5854150336         2.4317910248         6.4632327881         6.3048893610
        0.4100000000         0.7332553462         3.1083657754         1.5803103799         2.4547579220         6.3302581396         6.1462196376
        0.4150000000         0.7137396023         3.0978118352         1.5726533993         2.4700691867         6.1307961669         5.9826367202
        0.4200000000         0.6936533058         3.0869977055         1.5879673605         2.5057954711         6.5297201123         5.8142713747
        0.4250000000         0.6730125135         3.0759354654         1.5752057262         2.5185548584         6.1972834912         5.6412581895
        0.4300000000         0.6518337253         3.0646372884         1.5624440919         2.5440736330         5.8648468700         5.4637354688
        0.4350000000         0.6301338712         3.0531154211         1.5828627068         2.5797999174         6.3967454638         5.2818451217
        0.4400000000         0.6079302977         3.0413821630         1.5752057262         2.5951111822         6.1972834912         5.0957325483
        0.4450000000         0.5852407540         3.0294498470         1.5624440919         2.6180780793         5.8648468700         4.9055465243
        0.4500000000         0.5620833779         3.0173308211         1.5649964188         2.6333893441         5.9313341943         4.7114390815
        0.4550000000         0.5384766808         3.0050374308         1.5726533993         2.6614599961         6.1307961669         4.5135653864
        0.4600000000         0.5144395338         2.9925820028         1.5496824576         2.6869787707         5.5324102489         4.3120836161
        0.4650000000         0.4899911516         2.9799768290         1.5675487456         2.7099456679         5.9978215185         4.1071548322
        0.4700000000         0.4651510781         2.9672341527         1.5624440919         2.7303606875         5.8648468700         3.8989428516
        0.4750000000         0.4399391699         2.9543661540         1.5394731502         2.7482238297         5.2664609520         3.6876141156
        0.4800000000         0.4143755810         2.9413849376         1.5598917651         2.7813982367         5.7983595458         3.4733375574
        0.4850000000         0.3884807466         2.9283025211         1.5573394382         2.7941576240         5.7318722216         3.2562844663
        0.4900000000         0.3622753667         2.9151308235         1.5343684965         2.8120207662         5.1334863035         3.0366283513
        0.4950000000         0.3357803894         2.9018816553         1.5420254771         2.8400914183         5.3329482762         2.8145448019
        0.5000000000         0.3090169944         2.8885667094         1.5547871113         2.8681620703         5.6653848974         2.5902113486
        0.5050000000         0.2820065759         2.8751975518         1.5343684965         2.8783695801         5.1334863035         2.3638073199
        0.5100000000         0.2547707257         2.8617856148         1.5369208233         2.9013364773         5.1999736278         2.1355136998
        0.5150000000         0.2273312156         2.8483421888         1.5216068622         2.9166477420         4.8010496824         1.9055129827
        0.5200000000         0.1997099805         2.8348784167         1.5318161696         2.9345108842         5.0669989793         1.6739890277
        0.5250000000         0.1719291003         2.8214052873         1.5190545354         2.9549259039         4.7345623582         1.4411269115
        0.5300000000         0.1440107826         2.8079336307         1.5190545354         2.9753409236         4.7345623582         1.2071127804
        0.5350000000         0.1159773448         2.7944741133         1.5088452279         2.9932040658         4.4686130613         0.9721337019
        0.5400000000         0.0878511966         2.7810372335         1.5113975548         3.0008596982         4.5351003855         0.7363775146
        0.5450000000         0.0596548214         2.7676333183         1.5011882474         3.0187228404         4.2691510886         0.5000326784
        0.5500000000         0.0314107591         2.5000000000         1.4884266131         3.0365859826         3.9367144675         0.2632881237
        0.5550000000         0.0031415875         2.5000000000         1.4960835936         3.0570010023         4.1361764401         0.0263331005
        0.5600000000        -0.0251300954         2.5000000000         1.4833219594         3.0723122670         3.8037398190        -0.2106429730
        0.5650000000        -0.0533816898         2.5000000000         1.4884266131         3.0927272867         3.9367144675        -0.4474506617
        0.5700000000        -0.0815906116         2.2020972610         1.4705603251         3.1080385515         3.4713031979        -0.6839006652
        0.5750000000        -0.1097343111         2.1880952619         1.4501417102         3.1182460613         2.9394046041        -0.9198039690
        0.5800000000        -0.1377902907         2.1740686427         1.4067521537         3.1259016937         1.8091200922        -1.1549719955
        0.5850000000        -0.1657361228         2.1600283348         1.3659149240         3.1259016937         0.7453229046        -1.3892167552
        0.5900000000        -0.1935494681         2.1459854418         1.3352870017         3.1207979388        -0.0525249861        -1.6223509961
        0.5950000000        -0.2212080928         2.1319512346         1.3225253674         3.1259016937        -0.3849616073        -1.8541883546
        0.6000000000        -0.2486898872         2.1179371467         1.3327346748         3.1259016937        -0.1190123104        -2.0845435032
        0.6050000000        -0.2759728826         2.1039547682         1.3301823480         3.1182460613        -0.1854996346        -2.3132322997
        0.6100000000        -0.3030352696         2.0900158404         1.3403916554         3.1284535711         0.0804496623        -2.5400719336
        0.6150000000        -0.3298554149         2.0761322480         1.3582579434         3.1259016937         0.5458609319        -2.7648810729
        0.6200000000        -0.3564118787         2.0623160124         1.3199730405         3.1182460613        -0.4514489315        -2.9874800086
        0.6250000000        -0.3826834324         2.0485792829         1.2357462543         3.1156941838        -2.6455306310        -3.2076907984
        0.6300000000        -0.4086490747         2.0349343282         1.2638218497         3.1131423064        -1.9141700645        -3.4253374093
        0.6350000000        -0.4342880493         2.0213935263         1.2867927914         3.1080385515        -1.3157841464        -3.6402458580
        0.6400000000        -0.4595798606         2.0079693541         1.2408509080         3.0901754092        -2.5125559825        -3.8522443497
        0.6450000000        -0.4845042908         1.9946743758         1.2485078886         3.0850716543        -2.3130940098        -4.0611634163
        0.6500000000        -0.5090414158         1.9815212309         1.2587171960         3.0825197769        -2.0471447129        -4.2668360510
        0.6550000000        -0.5331716207         1.9685226211         1.2485078886         3.0697603896        -2.3130940098        -4.4690978422
        0.6600000000        -0.5568756165         1.9556912957         1.2536125423         3.0570010023        -2.1801193614        -4.6677871050
        0.6650000000        -0.5801344544         1.9430400370         1.2306416006         3.0442416150        -2.7785052794        -4.8627450102
