% f=4.20Hz  n_cycles=5  N_total=238  dt=0.005000
% Amp=1.0000V  K_lin=8.382100
Time[s]              Vcmd[V]              Vc[V]                Vg[V]                Pot[V]               Omega[rad/s]         Omega_target[rad/s] 
        0.0000000000         0.0000000000         2.5000000000         1.3352870017         1.3089649429        -0.0525249861         0.0000000000
        0.0050000000         0.1315643591         2.8019494964         1.3429439823         1.3140686978         0.1469369865         1.1027856143
        0.0100000000         0.2608415063         2.8647691618         1.3352870017         1.3089649429        -0.0525249861         2.1863995899
        0.0150000000         0.3855839923         2.9268431911         1.3429439823         1.3191724527         0.1469369865         3.2320035817
        0.0200000000         0.5036232016         2.9869974614         1.3429439823         1.3166205752         0.1469369865         4.2214200384
        0.0250000000         0.6129070537         3.0440071908         1.3429439823         1.3166205752         0.1469369865         5.1374482144
        0.0300000000         0.7115356772         3.0966228941         1.3429439823         1.3166205752         0.1469369865         5.9641631999
        0.0350000000         0.7977944395         3.1436056732         1.3429439823         1.3115168203         0.1469369865         6.6871927717
        0.0400000000         0.8701837547         3.1837719841         1.4475893834         1.3115168203         2.8729172798         7.2939672500
        0.0450000000         0.9274451533         3.2160463704         1.4246184417         1.3166205752         2.2745313618         7.7739380198
        0.0500000000         0.9685831611         3.2395184981         1.4322754222         1.3421393498         2.4739933345         8.1187609149
        0.0550000000         0.9928826046         3.2534986516         1.4680079982         1.3421393498         3.4048158736         8.3224412798
        0.0600000000         0.9999210442         3.2575643996         1.4935312668         1.3523468597         4.0696891159         8.3814381846
        0.0650000000         0.9895761186         3.2515912101         1.4629033445         1.3753137568         3.2718412252         8.2947259837
        0.0700000000         0.9620276716         3.2357617761         1.5139498816         1.3880731441         4.6015877097         8.0638121460
        0.0750000000         0.9177546257         3.2105523815         1.4960835936         1.4008325314         4.1361764401         7.6927110479
        0.0800000000         0.8575266562         3.1766987382         1.4756649788         1.4161437961         3.6042778463         7.1878741849
        0.0850000000         0.7823908106         3.1351470533         1.5318161696         1.4467663256         5.0669989793         6.5580780133
        0.0900000000         0.6936533058         3.0869977055         1.5139498816         1.4544219580         4.6015877097         5.8142713747
        0.0950000000         0.5928568202         3.0334486411         1.4960835936         1.4722851002         4.1361764401         4.9693851523
        0.1000000000         0.4817536741         2.9757439454         1.5267115159         1.4901482425         4.9340243309         4.0381074717
        0.1050000000         0.3622753667         2.9151308235         1.5343684965         1.5054595072         5.1334863035         3.0366283513
        0.1100000000         0.2364989970         2.8528261387         1.5037405742         1.5258745269         4.3356384128         1.9823582430
        0.1150000000         0.1066111543         2.7899921246         1.5062929011         1.5411857916         4.4021257370         0.8936253563
        0.1200000000        -0.0251300954         2.5000000000         1.4935312668         1.5590489338         4.0696891159        -0.2106429730
        0.1250000000        -0.1564344650         2.1647092765         1.5011882474         1.5794639535         4.2691510886        -1.3112493294
        0.1300000000        -0.2850192625         2.0993030471         1.4884266131         1.5973270957         3.9367144675        -2.3890599599
        0.1350000000        -0.4086490747         2.0349343282         1.4450370565         1.6075346056         2.8064299556        -3.4253374093
        0.1400000000        -0.5251746300         1.9728375343         1.4118568074         1.6151902379         1.9420947407        -4.4020662658
        0.1450000000        -0.6325701619         1.9142925872         1.3659149240         1.6151902379         0.7453229046        -5.3022663542
        0.1500000000        -0.7289686274         1.8605958864         1.3276300211         1.6151902379        -0.2519869588        -6.1102879319
        0.1550000000        -0.8126941644         1.8130217780         1.3276300211         1.6126383605        -0.2519869588        -6.8120837557
        0.1600000000        -0.8822912264         1.7727747704         1.3352870017         1.6075346056        -0.0525249861        -7.3954532891
        0.1650000000        -0.9365498867         1.7409345176         1.2331939274         1.6049827281        -2.7120179552        -7.8502548057
        0.1700000000        -0.9745268728         1.7183977567         1.2229846200         1.6024308506        -2.9779672521        -8.1685817004
        0.1750000000        -0.9955619646         1.7058234228         1.2485078886         1.5896714634        -2.3130940098        -8.3448999435
        0.1800000000        -0.9992894726         1.7035882916         1.1949090246         1.5743601986        -3.7093278186        -8.3761442886
        0.1850000000        -0.9856445951         1.7117600378         1.1617287755         1.5641526888        -4.5736630336        -8.2617715610
        0.1900000000        -0.9548645447         1.7300922722         1.2051183320         1.5462895465        -3.4433785217        -8.0037701005
        0.1950000000        -0.9074844245         1.7580424288         1.1591764486         1.5411857916        -4.6401503578        -7.6066251949
        0.2000000000        -0.8443279255         1.7948094066         1.1566241217         1.5080113847        -4.7066376820        -7.0772411044
        0.2050000000        -0.7664930068         1.8393848590         1.1719380829         1.4927001199        -4.3077137366        -6.4248210324
        0.2100000000        -0.6753328081         1.8906107515         1.1566241217         1.4875963650        -4.7066376820        -5.6607071310
        0.2150000000        -0.5724321256         1.9472363259         1.1617287755         1.4646294679        -4.5736630336        -4.7981833199
        0.2200000000        -0.4595798606         2.0079693541         1.1693857560         1.4416625707        -4.3742010609        -3.8522443497
        0.2250000000        -0.3387379202         2.0715187546         1.1515194680         1.4365588158        -4.8396123305        -2.8393351213
        0.2300000000        -0.2120071099         2.1366276361         1.1846997172         1.4161437961        -3.9752771155        -1.7770647961
        0.2350000000        -0.0815906116         2.2020972610         1.1693857560         1.3957287765        -4.3742010609        -0.6839006652
        0.2400000000         0.0502443182         2.5000000000         1.1642811023         1.3778656343        -4.5071757093         0.4211528994
        0.2450000000         0.1812057636         2.8258966983         1.1974613514         1.3727618793        -3.6428404944         1.5188848313
        0.2500000000         0.3090169944         2.8885667094         1.2076706589         1.3600024920        -3.3768911975         2.5902113486
        0.2550000000         0.4314560457         2.9500510662         1.2536125423         1.3370355949        -2.1801193614         3.6165077205
        0.2600000000         0.5463943467         3.0091538399         1.3097637331         1.3395874724        -0.7173982284         4.5799320538
        0.2650000000         0.6518337253         3.0646372884         1.3454963091         1.3395874724         0.2134243108         5.4637354688
        0.2700000000         0.7459411454         3.1152512727         1.3403916554         1.3344837175         0.0804496623         6.2525532751
        0.2750000000         0.8270805743         3.1597722168         1.3276300211         1.3370355949        -0.2519869588         6.9326720816
        0.2800000000         0.8938414242         3.1970511969         1.3327346748         1.3319318400        -0.1190123104         7.4922682014
        0.2850000000         0.9450630752         3.2260688699         1.3327346748         1.3319318400        -0.1190123104         7.9216132025
        0.2900000000         0.9798550524         3.2459927148         1.4577986908         1.3523468597         3.1388665767         8.2132430346
        0.2950000000         0.9976125064         3.2562300602         1.4833219594         1.3600024920         3.8037398190         8.3620877896
        0.3000000000         0.9980267284         3.2564694227         1.4373800759         1.3625543695         2.6069679829         8.3655598404
        0.3050000000         0.9810905174         3.2467034618         1.4782173056         1.3778656343         3.6707651706         8.2235988263
        0.3100000000         0.9470983050         3.2272295309         1.5241591891         1.3906250215         4.8675370066         7.9386727023
        0.3150000000         0.8966410368         3.1986277261         1.4603510177         1.4008325314         3.2053539010         7.5157348344
        0.3200000000         0.8305958992         3.1617202864         1.4960835936         1.4186956736         4.1361764401         6.9621378866
        0.3250000000         0.7501110696         3.1175189509         1.5216068622         1.4365588158         4.8010496824         6.2875059967
        0.3300000000         0.6565857558         3.0671677578         1.4884266131         1.4595257129         3.9367144675         5.5035674633
        0.3350000000         0.5516458706         3.0118878852         1.5037405742         1.4697332228         4.3356384128         4.6239508522
        0.3400000000         0.4371157667         2.9529291670         1.5139498816         1.4875963650         4.6015877097         3.6639480676
        0.3450000000         0.3149865197         2.8915306764         1.4858742862         1.5029076297         3.8702271432         2.6402485064
        0.3500000000         0.1873813146         2.8288908669         1.5011882474         1.5284264043         4.2691510886         1.5706489170
        0.3550000000         0.0565185345         2.5000000000         1.5011882474         1.5411857916         4.2691510886         0.4737440079
        0.3600000000        -0.0753268055         2.2052043875         1.4935312668         1.5641526888         4.0696891159        -0.6313968166
        0.3650000000        -0.2058626088         2.1397462682         1.4884266131         1.5769120761         3.9367144675        -1.7255609730
        0.3700000000        -0.3328195445         2.0745935633         1.4526940371         1.5896714634         3.0058919283        -2.7897267041
        0.3750000000        -0.4539904997         2.0109417822         1.4016475000         1.5871195859         1.6761454438        -3.8053937679
        0.3800000000        -0.5672689491         1.9500455230         1.3633625971         1.5973270957         0.6788355804        -4.7549050585
        0.3850000000        -0.6706855765         1.8931949127         1.3250776943         1.6024308506        -0.3184742830        -5.6217535711
        0.3900000000        -0.7624425110         1.8416830163         1.3352870017         1.6024308506        -0.0525249861        -6.3908693715
        0.3950000000        -0.8409445823         1.7967636684         1.3429439823         1.5973270957         0.1469369865        -7.0488815833
        0.4000000000        -0.9048270525         1.7596005817         1.2842404646         1.5947752183        -1.3822714707        -7.5843508365
        0.4050000000        -0.9529793415         1.7312105558         1.1949090246         1.5820158310        -3.7093278186        -7.9879681385
        0.4100000000        -0.9845643345         1.7124058022         1.2612695229         1.5769120761        -1.9806573887        -8.2527167085
        0.4150000000        -0.9990329347         1.7037421869         1.2102229857         1.5590489338        -3.3104038732        -8.3739939618
        0.4200000000        -0.9961336091         1.7054807825         1.1464148143         1.5488414240        -4.9725869789        -8.3496915252
        0.4250000000        -0.9759167619         1.7175689412         1.2000136783         1.5309782818        -3.5763531702        -8.1802318902
        0.4300000000        -0.9387338577         1.7396441571         1.1693857560         1.5156670170        -4.3742010609        -7.8685610682
        0.4350000000        -0.8852313113         1.7710600390         1.1464148143         1.4927001199        -4.9725869789        -7.4200973747
        0.4400000000        -0.8163392507         1.8109299833         1.1770427366         1.4799407326        -4.1747390882        -6.8426372334
        0.4450000000        -0.7332553462         1.8581817281         1.1336531800         1.4646294679        -5.3050236000        -6.1462196376
        0.4500000000        -0.6374239897         1.9116154190         1.1642811023         1.4493182031        -4.5071757093        -5.3429516245
        0.4550000000        -0.5305111843         1.9699588837         1.1668334292         1.4365588158        -4.4406883851        -4.4467977980
        0.4600000000        -0.4143755810         2.0319158225         1.1566241217         1.4212475511        -4.7066376820        -3.4733375574
        0.4650000000        -0.2910361668         2.0962047976         1.1617287755         1.4008325314        -4.5736630336        -2.4394942540
        0.4700000000        -0.1626371652         2.1615887013         1.1770427366         1.3931768990        -4.1747390882        -1.3632409824
        0.4750000000        -0.0314107591         2.5000000000         1.1744904097         1.3727618793        -4.2412264124        -0.2632881237
        0.4800000000         0.1003617149         2.7870057202         1.1846997172         1.3523468597        -3.9752771155         0.8412419301
        0.4850000000         0.2303894267         2.8498371101         1.2025660052         1.3370355949        -3.5098658459         1.9311472133
        0.4900000000         0.3564118787         2.9121928453         1.2459555617         1.3217243302        -2.3795813341         2.9874800086
        0.4950000000         0.4762382037         2.9729137587         1.2918974451         1.3217243302        -1.1828094980         3.9918762470
        0.5000000000         0.5877852523         3.0307851060         1.3378393285         1.3268280851         0.0139623381         4.9268747632
        0.5050000000         0.6891138084         3.0845604443         1.3480486360         1.3217243302         0.2799116350         5.7762208533
        0.5100000000         0.7784623016         3.1329946383         1.3276300211         1.3166205752        -0.2519869588         6.5251488580
        0.5150000000         0.8542774317         3.1748864363         1.3327346748         1.3140686978        -0.1190123104         7.1606388602
        0.5200000000         0.9152411726         3.2091295530         1.3429439823         1.3217243302         0.1469369865         7.6716430330
        0.5250000000         0.9602936857         3.2347691349         1.3863335388         1.3242762076         1.2772214984         8.0492777027
        0.5300000000         0.9886517447         3.2510582488         1.4935312668         1.3370355949         4.0696891159         8.2869777896
        0.5350000000         0.9998223524         3.2575073392         1.4297230954         1.3421393498         2.4075060102         8.3806109399
        0.5400000000         0.9936113105         3.2539192452         1.4552463639         1.3625543695         3.0723792525         8.3285493659
        0.5450000000         0.9701265965         3.2404038985         1.5292638428         1.3778656343         5.0005116551         8.1316981444
        0.5500000000         0.9297764859         3.2173700860         1.4909789399         1.3931768990         4.0032017917         7.7934794824
        0.5550000000         0.8732624548         3.1854957529         1.4782173056         1.4008325314         3.6707651706         7.3197732225
        0.5600000000         0.8015669849         3.1456819454         1.5165022085         1.4186956736         4.6680750340         6.7188146239
        0.5650000000         0.7159364830         3.0989975640         1.5113975548         1.4340069384         4.5351003855         6.0010511943
        0.5700000000         0.6178596131         3.0466222530         1.5011882474         1.4467663256         4.2691510886         5.1789610629
        0.5750000000         0.5090414158         2.9897933621         1.5037405742         1.4646294679         4.3356384128         4.2668360510
        0.5800000000         0.3913736668         2.9297607490         1.5037405742         1.4799407326         4.3356384128         3.2805332128
        0.5850000000         0.2669019893         2.8677510310         1.4986359205         1.4952519974         4.2026637644         2.2371991647
        0.5900000000         0.1377902907         2.8049412055         1.5062929011         1.5156670170         4.4021257370         1.1549719955
        0.5950000000         0.0062831440         2.5000000000         1.4833219594         1.5284264043         3.8037398190         0.0526659410
        0.6000000000        -0.1253332336         2.1803050394         1.4935312668         1.5513933015         4.0696891159        -1.0505556971
        0.6050000000        -0.2547707257         2.1148268000         1.4705603251         1.5590489338         3.4713031979        -2.1355136998
        0.6100000000        -0.3797790955         2.0501012795         1.4424847297         1.5794639535         2.7399426314        -3.1833463566
        0.6150000000        -0.4981851053         1.9873487510         1.4093044805         1.5871195859         1.8756074164        -4.1758373715
        0.6200000000        -0.6079302977         1.9278405919         1.4041998268         1.5973270957         1.7426327680        -5.0957325483
        0.6250000000        -0.7071067812         1.8728724110         1.3250776943         1.5896714634        -0.3184742830        -5.9270397506
        0.6300000000        -0.7939903986         1.8237278113         1.3276300211         1.5896714634        -0.2519869588        -6.6553069205
        0.6350000000        -0.8670707012         1.7816327013         1.3378393285         1.5871195859         0.0139623381        -7.2678733242
        0.6400000000        -0.9250772068         1.7477017037         1.2178799663         1.5845677084        -3.1109419006        -7.7540896554
        0.6450000000        -0.9670014878         1.7228803222         1.2357462543         1.5820158310        -2.6455306310        -8.1055031706
        0.6500000000        -0.9921147013         1.7078886519         1.2714788303         1.5692564437        -1.7147080918        -8.3160046379
        0.6550000000        -0.9999802609         1.7031738434         1.1770427366         1.5488414240        -4.1747390882        -8.3819345445
        0.6600000000        -0.9904614257         1.7088784844         1.1693857560         1.5360820367        -4.3742010609        -8.3021467163
        0.6650000000        -0.9637236783         1.7248301725         1.2051183320         1.5284264043        -3.4433785217        -8.0780282438
