% f=5.50Hz  n_cycles=5  N_total=181  dt=0.005000
% Amp=1.0000V  K_lin=8.382100
Time[s]              Vcmd[V]              Vc[V]                Vg[V]                Pot[V]               Omega[rad/s]         Omega_target[rad/s] 
        0.0000000000         0.0000000000         2.5000000000         1.3403916554         0.4668453814         0.0804496623         0.0000000000
        0.0050000000         0.1719291003         2.8214052873         1.3429439823         0.4693972588         0.1469369865         1.4411269115
        0.0100000000         0.3387379202         2.9033572462         1.3403916554         0.4617416265         0.0804496623         2.8393351213
        0.0150000000         0.4954586684         2.9827902919         1.3327346748         0.4540859941        -0.1190123104         4.1529841047
        0.0200000000         0.6374239897         3.0569801396         1.3352870017         0.4617416265        -0.0525249861         5.3429516245
        0.0250000000         0.7604059656         3.1231267912         1.3352870017         0.4617416265        -0.0525249861         6.3737988443
        0.0300000000         0.8607420270         3.1784935552         1.3378393285         0.4642935039         0.0139623381         7.2148257445
        0.0350000000         0.9354440308         3.2205912984         1.3557056165         0.4591897490         0.4793736077         7.8409854108
        0.0400000000         0.9822872507         3.2473921415         1.4756649788         0.4668453814         3.6042778463         8.2336299643
        0.0450000000         0.9998766325         3.2575387220         1.4195137880         0.4745010138         2.1415567133         8.3810659211
        0.0500000000         0.9876883406         3.2505029189         1.4373800759         0.4872604011         2.6069679829         8.2789024397
        0.0550000000         0.9460853588         3.2266517886         1.5113975548         0.5051235433         4.5351003855         7.9301820862
        0.0600000000         0.8763066800         3.1872014866         1.4680079982         0.5229866855         3.4048158736         7.3452902228
        0.0650000000         0.7804304073         3.1340727103         1.5113975548         0.5357460728         4.5351003855         6.5416457174
        0.0700000000         0.6613118653         3.0696870459         1.5165022085         0.5587129699         4.6680750340         5.5431821863
        0.0750000000         0.5224985647         2.9967510567         1.4833219594         0.5740242347         3.8037398190         4.3796352193
        0.0800000000         0.3681245527         2.9180649764         1.5037405742         0.5842317445         4.3356384128         3.0856568131
        0.0850000000         0.2027872954         2.8363750531         1.5088452279         0.6071986416         4.4686130613         1.6997833884
        0.0900000000         0.0314107591         2.5000000000         1.4731126519         0.6123023966         3.5377905221         0.2632881237
        0.0950000000        -0.1409012319         2.1725090828         1.4884266131         0.6301655388         3.9367144675        -1.1810482162
        0.1000000000        -0.3090169944         2.0869253944         1.4680079982         0.6429249261         3.4048158736        -2.5902113486
        0.1050000000        -0.4679298143         2.0035227170         1.4220661148         0.6531324359         2.2080440376        -3.9222344961
        0.1100000000        -0.6129070537         1.9251098363         1.3965428462         0.6607880683         1.5431707953        -5.1374482144
        0.1150000000        -0.7396310950         1.8545868416         1.3735719045         0.6658918232         0.9447848773        -6.1996618012
        0.1200000000        -0.8443279255         1.7948094066         1.3429439823         0.6658918232         0.1469369865        -7.0772411044
        0.1250000000        -0.9238795325         1.7484070696         1.3276300211         0.6658918232        -0.2519869588        -7.7440506295
        0.1300000000        -0.9759167619         1.7175689412         1.2740311571         0.6633399457        -1.6482207676        -8.1802318902
        0.1350000000        -0.9988898750         1.7038280031         1.2127753126         0.6531324359        -3.2439165490        -8.3727948209
        0.1400000000        -0.9921147013         1.7078886519         1.2485078886         0.6480286810        -2.3130940098        -8.3160046379
        0.1450000000        -0.9557930148         1.7295413226         1.2051183320         0.6327174162        -3.4433785217        -8.0115526293
        0.1500000000        -0.8910065242         1.7676882989         1.1744904097         0.6174061515        -4.2412264124        -7.4685057864
        0.1550000000        -0.7996846585         1.8204732622         1.1923566977         0.6046467642        -3.7758151428        -6.7030367759
        0.1600000000        -0.6845471059         1.8854793228         1.1770427366         0.5944392543        -4.1747390882        -5.7379422966
        0.1650000000        -0.5490228180         1.9599490285         1.1846997172         0.5791279896        -3.9752771155        -4.6019641627
        0.1700000000        -0.3971478906         2.0409866324         1.1770427366         0.5536092150        -4.1747390882        -3.3289333341
        0.1750000000        -0.2334453639         2.1257195818         1.1744904097         0.5408498277        -4.2412264124        -1.9567623844
        0.1800000000        -0.0627905195         2.2114129306         1.1872520440         0.5229866855        -3.9087897913        -0.5263164137
        0.1850000000         0.1097343111         2.7914858174         1.1795950634         0.5102272982        -4.1082517640         0.9198039690
        0.1900000000         0.2789911060         2.8737092414         1.2000136783         0.4898122785        -3.5763531702         2.3385313499
        0.1950000000         0.4399391699         2.9543661540         1.2408509080         0.4872604011        -2.5125559825         3.6876141156
        0.2000000000         0.5877852523         3.0307851060         1.2638218497         0.4719491363        -1.9141700645         4.9268747632
        0.2050000000         0.7181262978         3.1001800639         1.3046590794         0.4668453814        -0.8503728769         6.0194064405
        0.2100000000         0.8270805743         3.1597722168         1.3327346748         0.4617416265        -0.1190123104         6.9326720816
        0.2150000000         0.9114032766         3.2069586860         1.3403916554         0.4668453814         0.0804496623         7.6394734051
        0.2200000000         0.9685831611         3.2395184981         1.3403916554         0.4745010138         0.0804496623         8.1187609149
        0.2250000000         0.9969173337         3.2558284050         1.4450370565         0.4745010138         2.8064299556         8.3562607831
        0.2300000000         0.9955619646         3.2550455104         1.4424847297         0.4847085236         2.7399426314         8.3448999435
        0.2350000000         0.9645574185         3.2372107441         1.4195137880         0.4898122785         2.1415567133         8.0850167373
        0.2400000000         0.9048270525         3.2032436979         1.4884266131         0.5000197884         3.9367144675         7.5843508365
        0.2450000000         0.8181497174         3.1548303516         1.4833219594         0.5153310531         3.8037398190         6.8578127464
        0.2500000000         0.7071067812         3.0942354410         1.4603510177         0.5331941953         3.2053539010         5.9270397506
        0.2550000000         0.5750052520         3.0240859298         1.4909789399         0.5434017052         4.0032017917         4.8197515232
        0.2600000000         0.4257792916         2.9471675731         1.4807696325         0.5638167248         3.7372524948         3.5689245998
        0.2650000000         0.2638730500         2.8662603138         1.4807696325         0.5842317445         3.7372524948         2.2118102921
        0.2700000000         0.0941083133         2.7840207189         1.5062929011         0.5995430093         4.4021257370         0.7888252931
        0.2750000000        -0.0784590957         2.2036510500         1.4654556714         0.6071986416         3.3383285494        -0.6576519863
        0.2800000000        -0.2486898872         2.1179371467         1.4629033445         0.6199580289         3.2718412252        -2.0845435032
        0.2850000000        -0.4115143586         2.0334244240         1.4144091342         0.6378211711         2.0085820649        -3.4493545053
        0.2900000000        -0.5620833779         1.9528638931         1.3710195777         0.6352692937         0.8782975530        -4.7114390815
        0.2950000000        -0.6959127966         1.8791356389         1.3250776943         0.6301655388        -0.3184742830        -5.8332106523
        0.3000000000        -0.8090169944         1.8151302109         1.3327346748         0.6352692937        -0.1190123104        -6.7812613486
        0.3050000000        -0.8980275758         1.7635829469         1.3403916554         0.6352692937         0.0804496623        -7.5273569428
        0.3100000000        -0.9602936857         1.7268688630         1.3352870017         0.6352692937        -0.0525249861        -8.0492777027
        0.3150000000        -0.9939609555         1.7067827970         1.3123160600         0.6301655388        -0.6509109042        -8.3314801247
        0.3200000000        -0.9980267284         1.7043457070         1.1489671412         0.6225099064        -4.9060996547        -8.3655598404
        0.3250000000        -0.9723699204         1.7196834199         1.2204322931         0.6071986416        -3.0444545763        -8.1505019098
        0.3300000000        -0.9177546257         1.7520111186         1.2357462543         0.5995430093        -2.6455306310        -7.6927110479
        0.3350000000        -0.8358073614         1.7997280528         1.1362055069         0.5816798670        -5.2385362758        -7.0058208837
        0.3400000000        -0.7289686274         1.8605958864         1.1821473903         0.5689204797        -4.0417644397        -6.1102879319
        0.3450000000        -0.6004202253         1.9319559878         1.2178799663         0.5561610925        -3.1109419006        -5.0327823707
        0.3500000000        -0.4539904997         2.0109417822         1.1719380829         0.5382979502        -4.3077137366        -3.8053937679
        0.3550000000        -0.2940403252         2.0946565910         1.1744904097         0.5127791757        -4.2412264124        -2.4646754101
        0.3600000000        -0.1253332336         2.1803050394         1.1770427366         0.5000197884        -4.1747390882        -1.0505556971
        0.3650000000         0.0471064507         2.5000000000         1.1770427366         0.4821566461        -4.1747390882         0.3948509805
        0.3700000000         0.2181432414         2.8438559796         1.1923566977         0.4693972588        -3.7758151428         1.8284984637
        0.3750000000         0.3826834324         2.9253827753         1.2153276394         0.4591897490        -3.1774292248         3.2076907984
        0.3800000000         0.5358267950         3.0036612711         1.2638218497         0.4515341166        -1.9141700645         4.4913537782
        0.3850000000         0.6730125135         3.0759354654         1.2918974451         0.4438784843        -1.1828094980         5.6412581895
        0.3900000000         0.7901550124         3.1394068211         1.3276300211         0.4413266068        -0.2519869588         6.6231583292
        0.3950000000         0.8837656301         3.1913862146         1.3557056165         0.4413266068         0.4793736077         7.4078118880
        0.4000000000         0.9510565163         3.2294885441         1.3174207137         0.4336709744        -0.5179362557         7.9718508252
        0.4050000000         0.9900236577         3.2518492909         1.3301823480         0.4336709744        -0.1854996346         8.2984773013
        0.4100000000         0.9995065604         3.2573247685         1.4450370565         0.4413266068         2.8064299556         8.3779639396
        0.4150000000         0.9792228106         3.2456290813         1.4680079982         0.4515341166         3.4048158736         8.2079435209
        0.4200000000         0.9297764859         3.2173700860         1.4246184417         0.4591897490         2.2745313618         7.7934794824
        0.4250000000         0.8526401644         3.1739737635         1.4731126519         0.4745010138         3.5377905221         7.1469151216
        0.4300000000         0.7501110696         3.1175189509         1.5088452279         0.4923641560         4.4686130613         6.2875059967
        0.4350000000         0.6252426563         3.0505258649         1.4654556714         0.5025716658         3.3383285494         5.2408464697
        0.4400000000         0.4817536741         2.9757439454         1.4909789399         0.5204348080         4.0032017917         4.0381074717
        0.4450000000         0.3239174182         2.8959713317         1.4909789399         0.5331941953         4.0032017917         2.7151081911
        0.4500000000         0.1564344650         2.8139201652         1.4731126519         0.5459535826         3.5377905221         1.3112493294
        0.4550000000        -0.0157073173         2.5000000000         1.4884266131         0.5663686023         3.9367144675        -0.1316603044
        0.4600000000        -0.1873813146         2.1491057335         1.4629033445         0.5765761121         3.2718412252        -1.5706489170
        0.4650000000        -0.3534748438         2.0638474467         1.4526940371         0.5867836220         3.0058919283        -2.9628614880
        0.4700000000        -0.5090414158         1.9815212309         1.4195137880         0.5995430093         2.1415567133        -4.2668360510
        0.4750000000        -0.6494480483         1.9049715311         1.3837812120         0.6046467642         1.2107341742        -5.4437384859
        0.4800000000        -0.7705132428         1.8371017994         1.3352870017         0.6071986416        -0.0525249861        -6.4585190523
        0.4850000000        -0.8686315144         1.7807258151         1.3097637331         0.6071986416        -0.7173982284        -7.2809562172
        0.4900000000        -0.9408807690         1.7383750228         1.3429439823         0.6123023966         0.1469369865        -7.8865566935
        0.4950000000        -0.9851093262         1.7120800357         1.3378393285         0.6123023966         0.0139623381        -8.2572848828
        0.5000000000        -1.0000000000         1.7031619996         1.1770427366         0.6097505191        -4.1747390882        -8.3821000000
        0.5050000000        -0.9851093262         1.7120800357         1.2229846200         0.5918873769        -2.9779672521        -8.2572848828
        0.5100000000        -0.9408807690         1.7383750228         1.2382985811         0.5791279896        -2.5790433068        -7.8865566935
        0.5150000000        -0.8686315144         1.7807258151         1.1668334292         0.5663686023        -4.4406883851        -7.2809562172
        0.5200000000        -0.7705132428         1.8371017994         1.1540717949         0.5434017052        -4.7731250062        -6.4585190523
        0.5250000000        -0.6494480483         1.9049715311         1.1974613514         0.5280904404        -3.6428404944        -5.4437384859
        0.5300000000        -0.5090414158         1.9815212309         1.1642811023         0.5102272982        -4.5071757093        -4.2668360510
        0.5350000000        -0.3534748438         2.0638474467         1.1668334292         0.5000197884        -4.4406883851        -2.9628614880
        0.5400000000        -0.1873813146         2.1491057335         1.2025660052         0.4923641560        -3.5098658459        -1.5706489170
        0.5450000000        -0.0157073173         2.5000000000         1.1693857560         0.4693972588        -4.3742010609        -0.1316603044
        0.5500000000         0.1564344650         2.8139201652         1.1898043709         0.4540859941        -3.8423024671         1.3112493294
        0.5550000000         0.3239174182         2.8959713317         1.2204322931         0.4413266068        -3.0444545763         2.7151081911
        0.5600000000         0.4817536741         2.9757439454         1.2485078886         0.4260153420        -2.3130940098         4.0381074717
        0.5650000000         0.6252426563         3.0505258649         1.2816881377         0.4183597097        -1.4487587949         5.2408464697
        0.5700000000         0.7501110696         3.1175189509         1.3199730405         0.4234634646        -0.4514489315         6.2875059967
        0.5750000000         0.8526401644         3.1739737635         1.3582579434         0.4311190970         0.5458609319         7.1469151216
        0.5800000000         0.9297764859         3.2173700860         1.3403916554         0.4285672195         0.0804496623         7.7934794824
        0.5850000000         0.9792228106         3.2456290813         1.3276300211         0.4234634646        -0.2519869588         8.2079435209
        0.5900000000         0.9995065604         3.2573247685         1.4373800759         0.4311190970         2.6069679829         8.3779639396
        0.5950000000         0.9900236577         3.2518492909         1.4782173056         0.4464303617         3.6707651706         8.2984773013
        0.6000000000         0.9510565163         3.2294885441         1.4271707685         0.4515341166         2.3410186860         7.9718508252
        0.6050000000         0.8837656301         3.1913862146         1.4654556714         0.4566378716         3.3383285494         7.4078118880
        0.6100000000         0.7901550124         3.1394068211         1.5088452279         0.4796047687         4.4686130613         6.6231583292
        0.6150000000         0.6730125135         3.0759354654         1.4705603251         0.5000197884         3.4713031979         5.6412581895
        0.6200000000         0.5358267950         3.0036612711         1.5011882474         0.5127791757         4.2691510886         4.4913537782
        0.6250000000         0.3826834324         2.9253827753         1.4884266131         0.5204348080         3.9367144675         3.2076907984
        0.6300000000         0.2181432414         2.8438559796         1.4858742862         0.5434017052         3.8702271432         1.8284984637
        0.6350000000         0.0471064507         2.5000000000         1.4935312668         0.5536092150         4.0696891159         0.3948509805
        0.6400000000        -0.1253332336         2.1803050394         1.4731126519         0.5689204797         3.5377905221        -1.0505556971
        0.6450000000        -0.2940403252         2.0946565910         1.4603510177         0.5816798670         3.2053539010        -2.4646754101
        0.6500000000        -0.4539904997         2.0109417822         1.4399324028         0.5969911318         2.6734553072        -3.8053937679
        0.6550000000        -0.6004202253         1.9319559878         1.4016475000         0.6071986416         1.6761454438        -5.0327823707
        0.6600000000        -0.7289686274         1.8605958864         1.3659149240         0.6071986416         0.7453229046        -6.1102879319
        0.6650000000        -0.8358073614         1.7997280528         1.3429439823         0.6071986416         0.1469369865        -7.0058208837
