% f=3.50Hz  n_cycles=5  N_total=285  dt=0.005000
% Amp=1.5000V  K_lin=5.741200
Time[s]              Vcmd[V]              Vc[V]                Vg[V]                Pot[V]               Omega[rad/s]         Omega_target[rad/s] 
        0.0000000000         0.0000000000         2.5000000000         1.3352870017         2.7073937904        -0.0452113805         0.0000000000
        0.0050000000         0.1646014666         2.7572156437         1.3454963091         2.7201531777         0.2207379164         0.9450099403
        0.0100000000         0.3272148621         2.8115432595         1.3301823480         2.7099456679        -0.1781860289         1.8786059663
        0.0150000000         0.4858761273         2.8640767917         1.3454963091         2.7201531777         0.2207379164         2.7895120220
        0.0200000000         0.6386689373         2.9142364674         1.3429439823         2.7124975453         0.1542505922         3.6667261031
        0.0250000000         0.7837478471         2.9614821948         1.3403916554         2.7150494228         0.0877632680         4.4996531396
        0.0300000000         0.9193605805         3.0053168166         1.3378393285         2.7150494228         0.0212759438         5.2782329646
        0.0350000000         1.0438691949         3.0452887196         1.3301823480         2.7099456679        -0.1781860289         5.9930618217
        0.0400000000         1.1557698642         3.0809939006         1.3378393285         2.7201531777         0.0212759438         6.6355059441
        0.0450000000         1.2537110421         3.1120775844         1.3352870017         2.7150494228        -0.0452113805         7.1978058346
        0.0500000000         1.3365097863         3.1382354734         1.3352870017         2.7099456679        -0.0452113805         7.6731699850
        0.0550000000         1.4031660462         3.1592146983         1.3454963091         2.7201531777         0.2207379164         8.0558569047
        0.0600000000         1.4528747417         3.1748145267         1.3352870017         2.7124975453        -0.0452113805         8.3412444670
        0.0650000000         1.4850354866         3.1848868742         1.3276300211         2.7227050552        -0.2446733532         8.5258857355
        0.0700000000         1.4992598405         3.1893366542         1.3352870017         2.7099456679        -0.0452113805         8.6075505966
        0.0750000000         1.4953760006         3.1881219898         1.3429439823         2.7176013002         0.1542505922         8.5852526946
        0.0800000000         1.4734308761         3.1812543042         1.3403916554         2.7176013002         0.0877632680         8.4592613458
        0.0850000000         1.4336895222         3.1687982965         1.3429439823         2.7201531777         0.1542505922         8.2310982848
        0.0900000000         1.3766319385         3.1508718002         1.3506009628         2.7252569326         0.3537125649         7.9035192855
        0.0950000000         1.3029472717         3.1276455145         1.3429439823         2.7201531777         0.1542505922         7.4804808760
        0.1000000000         1.2135254916         3.0993425897         1.3557056165         2.7303606875         0.4866872133         6.9670925522
        0.1050000000         1.1094466425         3.0662380352         1.3506009628         2.7176013002         0.3537125649         6.3695550637
        0.1100000000         0.9919677980         3.0286579144         1.4169614611         2.7354644424         2.0823829948         5.6950855218
        0.1150000000         0.8625078781         2.9869782729         1.5675487456         2.7482238297         6.0051351242         4.9518302295
        0.1200000000         0.7226305112         2.9416237406         1.5675487456         2.7711907269         6.0051351242         4.1487662906
        0.1250000000         0.5740251485         2.8930657320         1.5420254771         2.7916057465         5.3402618819         3.2955931828
        0.1300000000         0.4184866591         2.8418201593         1.5190545354         2.8120207662         4.7418759638         2.4026156070
        0.1350000000         0.2578936504         2.7884445606         1.5037405742         2.8273320310         4.3429520185         1.4806190258
        0.1400000000         0.0941857793         2.7335345354         1.4782173056         2.8426432957         3.6780787762         0.5407393961
        0.1450000000        -0.0706596761         2.2504470876         1.4680079982         2.8579545605         3.4121294793        -0.4056713322
        0.1500000000        -0.2346516976         2.2027817552         1.4526940371         2.8758177027         3.0132055340        -1.3471823260
        0.1550000000        -0.3958095749         2.1555635308         1.4450370565         2.8834733351         2.8137435613        -2.2724219317
        0.1600000000        -0.5521868290         2.1093804401         1.4169614611         2.8834733351         2.0823829948        -3.1702150228
        0.1650000000        -0.7018947214         2.0648216277         1.3990951731         2.8962327224         1.6169717252        -4.0297179744
        0.1700000000        -0.8431250668         2.0224691704         1.3812288851         2.9013364773         1.1515604556        -4.8405496334
        0.1750000000        -0.9741720725         1.9828892315         1.3531532897         2.9013364773         0.4201998891        -5.5929167026
        0.1800000000        -1.0934529411         1.9466227032         1.3148683868         2.9013364773        -0.5771099743        -6.2777320256
        0.1850000000        -1.1995269877         1.9141755456         1.3327346748         2.9115439871        -0.1116987047        -6.8867243420
        0.1900000000        -1.2911130405         1.8860090893         1.3454963091         2.9115439871         0.2207379164        -7.4125381882
        0.1950000000        -1.3671049150         1.8625306199         1.3352870017         2.9013364773        -0.0452113805        -7.8488227377
        0.2000000000        -1.4265847744         1.8440845978         1.3250776943         2.8987845998        -0.3111606774        -8.1903085070
        0.2050000000        -1.4688342159         1.8309448819         1.3403916554         2.9064402322         0.0877632680        -8.4328710005
        0.2100000000        -1.4933429469         1.8233083132         1.3378393285         2.9089921097         0.0212759438        -8.5735805268
        0.2150000000        -1.4998149487         1.8212899742         1.3301823480         2.9013364773        -0.1781860289        -8.6107375836
        0.2200000000        -1.4881720520         1.8249203651         1.3352870017         2.9038883547        -0.0452113805        -8.5438933848
        0.2250000000        -1.4585548806         1.8341446502         1.3378393285         2.9064402322         0.0212759438        -8.3738552805
        0.2300000000        -1.4113211534         1.8488240119         1.3301823480         2.9038883547        -0.1781860289        -8.1026770061
        0.2350000000        -1.3470413636         1.8687390416         1.3454963091         2.9089921097         0.2207379164        -7.7336338769
        0.2400000000        -1.2664918883         1.8935949881         1.3403916554         2.9038883547         0.0877632680        -7.2711832288
        0.2450000000        -1.1706456110         1.9230285966         1.3403916554         2.9038883547         0.0877632680        -6.7209105819
        0.2500000000        -1.0606601718         1.9566162095         1.3301823480         2.9038883547        -0.1781860289        -6.0894621782
        0.2550000000        -0.9378639845         1.9938827653         1.2025660052         2.8936808449        -3.5025522403        -5.3844647078
        0.2600000000        -0.8037401925         2.0343113299         1.0877112966         2.8656101929        -6.4944818305        -4.6144331930
        0.2650000000        -0.6599087548         2.0773528138         1.1489671412         2.8630583154        -4.8987860490        -3.7886681430
        0.2700000000        -0.5081068804         2.1224355710         1.1617287755         2.8375395408        -4.5663494279        -2.9171432216
        0.2750000000        -0.3501680458         2.1689746292         1.1795950634         2.8247801535        -4.1009381583        -2.0103847845
        0.2800000000        -0.1879998503         2.2163803601         1.1872520440         2.8094688888        -3.9014761856        -1.0793447408
        0.2850000000        -0.0235609760         2.5000000000         1.2102229857         2.7916057465        -3.3030902676        -0.1352682752
        0.2900000000         0.1411624700         2.7493435762         1.2204322931         2.7813982367        -3.0371409707         0.8104419726
        0.2950000000         0.3041809430         2.8038780247         1.2204322931         2.7660869720        -3.0371409707         1.7463636302
        0.3000000000         0.4635254916         2.8567042300         1.2408509080         2.7609832170        -2.5052423769         2.6611925522
        0.3050000000         0.6172715379         2.9072370590         1.2638218497         2.7507757072        -1.9068564588         3.5438793534
        0.3100000000         0.7635621236         2.9549305352         1.2842404646         2.7380163199        -1.3749578650         4.3837628642
        0.3150000000         0.9006303380         2.9992811946         1.3021067526         2.7303606875        -0.9095465954         5.1706988965
        0.3200000000         1.0268206589         3.0398307793         1.3123160600         2.7252569326        -0.6435972985         5.8951827668
        0.3250000000         1.1406089484         3.0761683762         1.3454963091         2.7354644424         0.2207379164         6.5484640946
        0.3300000000         1.2406208614         3.1079320932         1.3352870017         2.7252569326        -0.0452113805         7.1226524895
        0.3350000000         1.3256484451         3.1348103571         1.3429439823         2.7329125650         0.1542505922         7.6108128532
        0.3400000000         1.3946647288         3.1565429033         1.3454963091         2.7303606875         0.2207379164         8.0070491412
        0.3450000000         1.4468361277         3.1729215157         1.3506009628         2.7405681974         0.3537125649         8.3065755763
        0.3500000000         1.4815325109         3.1837905640         1.3480486360         2.7303606875         0.2872252407         8.5057744515
        0.3550000000         1.4983348124         3.1890473743         1.3557056165         2.7405681974         0.4866872133         8.6022398252
        0.3600000000         1.4970400926         3.1886424603         1.3454963091         2.7380163199         0.2207379164         8.5948065799
        0.3650000000         1.4776639892         3.1825796296         1.3403916554         2.7380163199         0.0877632680         8.4835644950
        0.3700000000         1.4404405285         3.1709159764         1.3403916554         2.7380163199         0.0877632680         8.2698571623
        0.3750000000         1.3858192988         3.1537617567         1.3352870017         2.7354644424        -0.0452113805         7.9562657581
        0.3800000000         1.3144600201         3.1312801394         1.3378393285         2.7456719523         0.0212759438         7.5465778672
        0.3850000000         1.2272245761         3.1036868133         1.3403916554         2.7380163199         0.0877632680         7.0457417365
        0.3900000000         1.1251666044         3.0712494234         1.3429439823         2.7431200748         0.1542505922         6.4598065094
        0.3950000000         1.0095187703         3.0342867983         1.3582579434         2.7354644424         0.5531745376         5.7958491638
        0.4000000000         0.8816778784         2.9931679206         1.5445778039         2.7558794621         5.4067492061         5.0618890357
        0.4050000000         0.7431880026         2.9483105795         1.5854150336         2.7813982367         6.4705463937         4.2667909608
        0.4100000000         0.5957218360         2.9001796335         1.5547871113         2.7992613789         5.6726985030         3.4201582046
        0.4150000000         0.4410604878         2.8492847993         1.5420254771         2.8273320310         5.3402618819         2.5322164728
        0.4200000000         0.2810719719         2.7961778692         1.5037405742         2.8349876633         4.3429520185         1.6136904049
        0.4250000000         0.1176886436         2.7414492528         1.4858742862         2.8554026830         3.8775407489         0.6756740406
        0.4300000000        -0.0471161386         2.5000000000         1.4629033445         2.8681620703         3.2791548309        -0.2705031750
        0.4350000000        -0.2113518479         2.2095773551         1.4654556714         2.8885770900         3.3456421551        -1.2134132292
        0.4400000000        -0.3730348307         2.1622593791         1.4552463639         2.8962327224         3.0796928582        -2.1416675703
        0.4450000000        -0.5302122657         2.1158922829         1.4399324028         2.9038883547         2.6807689128        -3.0440546597
        0.4500000000        -0.6809857496         2.0710655356         1.4169614611         2.9243033744         2.0823829948        -3.9096753857
        0.4550000000        -0.8235342270         2.0283627510         1.4016475000         2.9166477420         1.6834590494        -4.7280747040
        0.4600000000        -0.9561359846         1.9883529291         1.3888858657         2.9370627617         1.3510224283        -5.4893679149
        0.4650000000        -1.0771894466         1.9515811591         1.3608102703         2.9319590068         0.6196618618        -6.1843600511
        0.4700000000        -1.1852325186         1.9185589874         1.3123160600         2.9345108842        -0.6435972985        -6.8046569356
        0.4750000000        -1.2789602465         1.8897547071         1.3250776943         2.9294071293        -0.3111606774        -7.3427665674
        0.4800000000        -1.3572405787         1.8655838809         1.3352870017         2.9268552519        -0.0452113805        -7.7921896104
        0.4850000000        -1.4191280382         1.8464004477         1.3327346748         2.9319590068        -0.1116987047        -8.1474978932
        0.4900000000        -1.4638751429         1.8324887804         1.3301823480         2.9268552519        -0.1781860289        -8.4043999705
        0.4950000000        -1.4909414332         1.8240570552         1.3454963091         2.9370627617         0.2207379164        -8.5597929562
        0.5000000000        -1.5000000000         1.8212322538         1.3327346748         2.9294071293        -0.1116987047        -8.6118000000
        0.5050000000        -1.4909414332         1.8240570552         1.3378393285         2.9345108842         0.0212759438        -8.5597929562
        0.5100000000        -1.4638751429         1.8324887804         1.3378393285         2.9345108842         0.0212759438        -8.4043999705
        0.5150000000        -1.4191280382         1.8464004477         1.3429439823         2.9396146392         0.1542505922        -8.1474978932
        0.5200000000        -1.3572405787         1.8655838809         1.3454963091         2.9396146392         0.2207379164        -7.7921896104
        0.5250000000        -1.2789602465         1.8897547071         1.3301823480         2.9319590068        -0.1781860289        -7.3427665674
        0.5300000000        -1.1852325186         1.9185589874         1.3352870017         2.9319590068        -0.0452113805        -6.8046569356
        0.5350000000        -1.0771894466         1.9515811591         1.3327346748         2.9243033744        -0.1116987047        -6.1843600511
        0.5400000000        -0.9561359846         1.9883529291         1.2740311571         2.9217514970        -1.6409071619        -5.4893679149
        0.5450000000        -0.8235342270         2.0283627510         1.0953682772         2.9064402322        -6.2950198578        -4.7280747040
        0.5500000000        -0.6809857496         2.0710655356         1.1285485263         2.8936808449        -5.4306846428        -3.9096753857
        0.5550000000        -0.5302122657         2.1158922829         1.1489671412         2.8630583154        -4.8987860490        -3.0440546597
        0.5600000000        -0.3730348307         2.1622593791         1.1642811023         2.8426432957        -4.4998621037        -2.1416675703
        0.5650000000        -0.2113518479         2.2095773551         1.1974613514         2.8375395408        -3.6355268887        -1.2134132292
        0.5700000000        -0.0471161386         2.5000000000         1.2127753126         2.8196763986        -3.2366029434        -0.2705031750
        0.5750000000         0.1176886436         2.7414492528         1.2102229857         2.8018132564        -3.3030902676         0.6756740406
        0.5800000000         0.2810719719         2.7961778692         1.2204322931         2.8043651338        -3.0371409707         1.6136904049
        0.5850000000         0.4410604878         2.8492847993         1.2280892737         2.7813982367        -2.8376789980         2.5322164728
        0.5900000000         0.5957218360         2.9001796335         1.2587171960         2.7813982367        -2.0398311073         3.4201582046
        0.5950000000         0.7431880026         2.9483105795         1.2765834840         2.7686388494        -1.5744198377         4.2667909608
        0.6000000000         0.8816778784         2.9931679206         1.2970020988         2.7635350945        -1.0425212439         5.0618890357
        0.6050000000         1.0095187703         3.0342867983         1.3123160600         2.7609832170        -0.6435972985         5.7958491638
        0.6100000000         1.1251666044         3.0712494234         1.3327346748         2.7558794621        -0.1116987047         6.4598065094
        0.6150000000         1.2272245761         3.1036868133         1.3531532897         2.7584313396         0.4201998891         7.0457417365
        0.6200000000         1.3144600201         3.1312801394         1.3454963091         2.7609832170         0.2207379164         7.5465778672
        0.6250000000         1.3858192988         3.1537617567         1.3582579434         2.7686388494         0.5531745376         7.9562657581
        0.6300000000         1.4404405285         3.1709159764         1.3327346748         2.7584313396        -0.1116987047         8.2698571623
        0.6350000000         1.4776639892         3.1825796296         1.3582579434         2.7686388494         0.5531745376         8.4835644950
        0.6400000000         1.4970400926         3.1886424603         1.3454963091         2.7660869720         0.2207379164         8.5948065799
        0.6450000000         1.4983348124         3.1890473743         1.3429439823         2.7762944818         0.1542505922         8.6022398252
        0.6500000000         1.4815325109         3.1837905640         1.3301823480         2.7584313396        -0.1781860289         8.5057744515
        0.6550000000         1.4468361277         3.1729215157         1.3352870017         2.7660869720        -0.0452113805         8.3065755763
        0.6600000000         1.3946647288         3.1565429033         1.3403916554         2.7660869720         0.0877632680         8.0070491412
        0.6650000000         1.3256484451         3.1348103571         1.3378393285         2.7660869720         0.0212759438         7.6108128532
