% f=3.60Hz  n_cycles=5  N_total=277  dt=0.005000
% Amp=1.5000V  K_lin=5.741200
Time[s]              Vcmd[V]              Vc[V]                Vg[V]                Pot[V]               Omega[rad/s]         Omega_target[rad/s] 
        0.0000000000         0.0000000000         2.5000000000         1.3352870017         2.7456719523        -0.0452113805         0.0000000000
        0.0050000000         0.1692845773         2.7587872235         1.3429439823         2.7533275847         0.1542505922         0.9718966153
        0.0100000000         0.3364061414         2.8145991825         1.3327346748         2.7405681974        -0.1116987047         1.9313749391
        0.0150000000         0.4992293168         2.8684771473         1.3454963091         2.7507757072         0.2207379164         2.8661753535
        0.0200000000         0.6556736500         2.9197931979         1.3352870017         2.7456719523        -0.0452113805         3.7643535592
        0.0250000000         0.8037401925         2.9679641639         1.3378393285         2.7456719523         0.0212759438         4.6144331930
        0.0300000000         0.9415370419         3.0124552920         1.3378393285         2.7482238297         0.0212759438         5.4055524652
        0.0350000000         1.0673035158         3.0527831642         1.3378393285         2.7456719523         0.0212759438         6.1276029450
        0.0400000000         1.1794326482         3.0885179903         1.3378393285         2.7456719523         0.0212759438         6.7713587199
        0.0450000000         1.2764917227         3.1192853862         1.3531532897         2.7456719523         0.4201998891         7.3285942783
        0.0500000000         1.3572405787         3.1447677334         1.3531532897         2.7456719523         0.4201998891         7.7921896104
        0.0550000000         1.4206474575         3.1647052008         1.3480486360         2.7507757072         0.2872252407         8.1562211830
        0.0600000000         1.4659021854         3.1788964952         1.3506009628         2.7507757072         0.3537125649         8.4160376265
        0.0650000000         1.4924265255         3.1871993906         1.3480486360         2.7533275847         0.2872252407         8.5683191680
        0.0700000000         1.4998815663         3.1895310762         1.3454963091         2.7533275847         0.2207379164         8.6111200485
        0.0750000000         1.4881720520         3.1858683495         1.3506009628         2.7609832170         0.3537125649         8.5438933848
        0.0800000000         1.4574475994         3.1762476686         1.3378393285         2.7533275847         0.0212759438         8.3674981575
        0.0850000000         1.4081007865         3.1607650694         1.3352870017         2.7533275847        -0.0452113805         8.0841882353
        0.0900000000         1.3407621362         3.1395759401         1.3429439823         2.7584313396         0.1542505922         7.6975835765
        0.0950000000         1.2562920601         3.1128946352         1.3327346748         2.7482238297        -0.1116987047         7.2126239752
        0.1000000000         1.1557698642         3.0809939006         1.3403916554         2.7584313396         0.0877632680         6.6355059441
        0.1050000000         1.0404799587         3.0442040688         1.3454963091         2.7584313396         0.2207379164         5.9736035390
        0.1100000000         0.9118954465         3.0029119670         1.4016475000         2.7533275847         1.6834590494         5.2353741377
        0.1150000000         0.7716593007         2.9575594731         1.5879673605         2.7788463592         6.5370337180         4.4302503770
        0.1200000000         0.6215633715         2.9086416310         1.5726533993         2.7992613789         6.1381097726         3.5685196284
        0.1250000000         0.4635254916         2.8567042300         1.5445778039         2.8222282761         5.4067492061         2.6611925522
        0.1300000000         0.2995649708         2.8023407309         1.5241591891         2.8451951732         4.8748506123         1.7198624102
        0.1350000000         0.1317767948         2.7461884135         1.5062929011         2.8605064379         4.4094393427         0.7565569345
        0.1400000000        -0.0376951432         2.5000000000         1.4833219594         2.8758177027         3.8110534247        -0.2164153559
        0.1450000000        -0.2066854360         2.2109374182         1.4629033445         2.8834733351         3.2791548309        -1.1866224253
        0.1500000000        -0.3730348307         2.1622593791         1.4348277491         2.9013364773         2.5477942644        -2.1416675703
        0.1550000000        -0.5346178181         2.1145873438         1.4348277491         2.9038883547         2.5477942644        -3.0693478171
        0.1600000000        -0.6893697909         2.0685626735         1.4271707685         2.9294071293         2.3483322917        -3.9578098437
        0.1650000000        -0.8353134247         2.0248198986         1.3812288851         2.9243033744         1.1515604556        -4.7957014341
        0.1700000000        -0.9705839424         1.9839766058         1.3761242314         2.9421665166         1.0185858072        -5.5723165298
        0.1750000000        -1.0934529411         1.9466227032         1.3480486360         2.9345108842         0.2872252407        -6.2777320256
        0.1800000000        -1.2023504773         1.9133093107         1.3174207137         2.9345108842        -0.5106226501        -6.9029345603
        0.1850000000        -1.2958851258         1.8845375985         1.3454963091         2.9421665166         0.2207379164        -7.4399356842
        0.1900000000        -1.3728617589         1.8607479596         1.3506009628         2.9421665166         0.3537125649        -7.8818739304
        0.1950000000        -1.4322968171         1.8423099480         1.3327346748         2.9370627617        -0.1116987047        -8.2231024864
        0.2000000000        -1.4734308761         1.8295134291         1.3327346748         2.9396146392        -0.1116987047        -8.4592613458
        0.2050000000        -1.4957383504         1.8225613756         1.3403916554         2.9345108842         0.0877632680        -8.5873330173
        0.2100000000        -1.4989342090         1.8215646822         1.3327346748         2.9370627617        -0.1116987047        -8.6056810805
        0.2150000000        -1.4829776171         1.8265392840         1.3352870017         2.9421665166        -0.0452113805        -8.5140710953
        0.2200000000        -1.4480724582         1.8374057388         1.3429439823         2.9319590068         0.1542505922        -8.3136735973
        0.2250000000        -1.3946647288         1.8539912994         1.3378393285         2.9345108842         0.0212759438        -8.0070491412
        0.2300000000        -1.3234368397         1.8760343569         1.3327346748         2.9345108842        -0.1116987047        -7.5981155838
        0.2350000000        -1.2352988964         1.9031910097         1.3378393285         2.9345108842         0.0212759438        -7.0920980243
        0.2400000000        -1.1313770711         1.9350434104         1.3352870017         2.9345108842        -0.0452113805        -6.4954620406
        0.2450000000        -1.0129992122         1.9711094733         1.3301823480         2.9345108842        -0.1781860289        -5.8158310770
        0.2500000000        -0.8816778784         2.0108534965         1.2612695229         2.9345108842        -1.9733437830        -5.0618890357
        0.2550000000        -0.7390910123         2.0536972570         1.0928159503         2.9089921097        -6.3615071820        -4.2432693199
        0.2600000000        -0.5870605003         2.0990311771         1.1362055069         2.8911289674        -5.2312226702        -3.3704317441
        0.2650000000        -0.4275288937         2.1462252157         1.1617287755         2.8758177027        -4.5663494279        -2.4545288845
        0.2700000000        -0.2625345885         2.1946392112         1.1591764486         2.8477470506        -4.6328367521        -1.5072635793
        0.2750000000        -0.0941857793         2.2436324785         1.2076706589         2.8451951732        -3.3695775918        -0.5407393961
        0.2800000000         0.0753664773         2.7271893370         1.2127753126         2.8273320310        -3.2366029434         0.4326940193
        0.2850000000         0.2439557478         2.7837894026         1.2331939274         2.8196763986        -2.7047043495         1.4005987392
        0.2900000000         0.4094279033         2.8388220195         1.2280892737         2.7941576240        -2.8376789980         2.3506074783
        0.2950000000         0.5696686433         2.8916363113         1.2587171960         2.7992613789        -2.0398311073         3.2705816148
        0.3000000000         0.7226305112         2.9416237406         1.2663741766         2.7865019916        -1.8403691346         4.1487662906
        0.3050000000         0.8663590551         2.9882222503         1.2970020988         2.7865019916        -1.0425212439         4.9739406073
        0.3100000000         0.9990178012         3.0309195826         1.3148683868         2.7686388494        -0.5771099743         5.7355610000
        0.3150000000         1.1189117181         3.0692559040         1.3403916554         2.7711907269         0.0877632680         6.4238959562
        0.3200000000         1.2245088761         3.1028258567         1.3378393285         2.7762944818         0.0212759438         7.0301503593
        0.3250000000         1.3144600201         3.1312801394         1.3454963091         2.7762944818         0.2207379164         7.5465778672
        0.3300000000         1.3876158103         3.1543267085         1.3403916554         2.7788463592         0.0877632680         7.9665798898
        0.3350000000         1.4430415074         3.1717316712         1.3454963091         2.7762944818         0.2207379164         8.2847899022
        0.3400000000         1.4800289163         3.1833199326         1.3480486360         2.7813982367         0.2872252407         8.4971420143
        0.3450000000         1.4981054349         3.1889756401         1.3506009628         2.7813982367         0.3537125649         8.6009229229
        0.3500000000         1.4970400926         3.1886424603         1.3480486360         2.7813982367         0.2872252407         8.5948065799
        0.3550000000         1.4768465018         3.1823237080         1.3403916554         2.7916057465         0.0877632680         8.4788711361
        0.3600000000         1.4377826835         3.1700823389         1.3378393285         2.7813982367         0.0212759438         8.2545979427
        0.3650000000         1.3803477710         3.1520408044         1.3429439823         2.7813982367         0.1542505922         7.9248526231
        0.3700000000         1.3052756320         3.1283807580         1.3403916554         2.7813982367         0.0877632680         7.4938484585
        0.3750000000         1.2135254916         3.0993425897         1.3403916554         2.7916057465         0.0877632680         6.9670925522
        0.3800000000         1.1062696760         3.0652247542         1.3378393285         2.7813982367         0.0212759438         6.3513154641
        0.3850000000         0.9848786336         3.0263828468         1.3403916554         2.7865019916         0.0877632680         5.6543852114
        0.3900000000         0.8509034237         2.9832283640         1.4220661148         2.7890538691         2.2153576432         4.8852067361
        0.3950000000         0.7060558982         2.9362270752         1.5828627068         2.8069170113         6.4040590695         4.0536081230
        0.4000000000         0.5521868290         2.8858969127         1.5624440919         2.8298839084         5.8721604757         3.1702150228
        0.4050000000         0.3912622594         2.8328052756         1.5394731502         2.8502989281         5.2737745577         2.2463148839
        0.4100000000         0.2253383837         2.7775656269         1.5190545354         2.8732658252         4.7418759638         1.2937127284
        0.4150000000         0.0565352740         2.7208332509         1.4960835936         2.8809214576         4.1434900458         0.3245803151
        0.4200000000        -0.1129902083         2.2381799532         1.4858742862         2.9089921097         3.8775407489        -0.6486993838
        0.4250000000        -0.2810719719         2.1892195949         1.4552463639         2.9089921097         3.0796928582        -1.6136904049
        0.4300000000        -0.4455623724         2.1409094423         1.4399324028         2.9294071293         2.6807689128        -2.5580626922
        0.4350000000        -0.6043596536         2.0938905699         1.4144091342         2.9345108842         2.0158956706        -3.4697496431
        0.4400000000        -0.7554348025         2.0488025035         1.3863335388         2.9447183941         1.2845351041        -4.3371022878
        0.4450000000        -0.8968574746         2.0062735336         1.3506009628         2.9421665166         0.3537125649        -5.1490381331
        0.4500000000        -1.0268206589         1.9669102993         1.3327346748         2.9421665166        -0.1116987047        -5.8951827668
        0.4550000000        -1.1436637665         1.9312868524         1.3352870017         2.9549259039        -0.0452113805        -6.5660024163
        0.4600000000        -1.2458938488         1.8999334805         1.3327346748         2.9396146392        -0.1116987047        -7.1529257647
        0.4650000000        -1.3322046732         1.8733256433         1.3301823480         2.9421665166        -0.1781860289        -7.6484534699
        0.4700000000        -1.4014934137         1.8518734304         1.3327346748         2.9447183941        -0.1116987047        -8.0462539866
        0.4750000000        -1.4528747417         1.8359119828         1.3429439823         2.9523740265         0.1542505922        -8.3412444670
        0.4800000000        -1.4856921385         1.8256933241         1.3352870017         2.9498221490        -0.0452113805        -8.5296557058
        0.4850000000        -1.4995262839         1.8213800120         1.3327346748         2.9447183941        -0.1116987047        -8.6090803013
        0.4900000000        -1.4942004137         1.8230409484         1.3327346748         2.9447183941        -0.1116987047        -8.5785034152
        0.4950000000        -1.4697825786         1.8306495811         1.3403916554         2.9498221490         0.0877632680        -8.4383157401
        0.5000000000        -1.4265847744         1.8440845978         1.3327346748         2.9523740265        -0.1116987047        -8.1903085070
        0.5050000000        -1.3651589560         1.8631330755         1.3378393285         2.9498221490         0.0212759438        -7.8376505983
        0.5100000000        -1.2862899843         1.8874959049         1.3301823480         2.9421665166        -0.1781860289        -7.3848480578
        0.5150000000        -1.1909855980         1.9167951982         1.3250776943         2.9396146392        -0.3111606774        -6.8376865151
        0.5200000000        -1.0804635373         1.9505832945         1.3352870017         2.9523740265        -0.0452113805        -6.2031572605
        0.5250000000        -0.9561359846         1.9883529291         1.3199730405         2.9447183941        -0.4441353258        -5.4893679149
        0.5300000000        -0.8195915201         2.0295481192         1.1413101606         2.9294071293        -5.0982480217        -4.7054388352
        0.5350000000        -0.6725748241         2.0735753369         1.1106822383         2.9089921097        -5.8960959124        -3.8613865803
        0.5400000000        -0.5169643848         2.1198145922         1.1413101606         2.8834733351        -5.0982480217        -2.9679959258
        0.5450000000        -0.3547484955         2.1676301097         1.1719380829         2.8758177027        -4.3004001310        -2.0366820626
        0.5500000000        -0.1879998503         2.2163803601         1.1770427366         2.8528508056        -4.1674254825        -1.0793447408
        0.5550000000        -0.0188490598         2.5000000000         1.2229846200         2.8477470506        -2.9706536464        -0.1082162223
        0.5600000000         0.1505425723         2.7524951778         1.2204322931         2.8298839084        -3.0371409707         0.8642950160
        0.5650000000         0.3180106649         2.8084814686         1.2204322931         2.8222282761        -3.0371409707         1.8257628292
        0.5700000000         0.4814154147         2.8626061080         1.2382985811         2.8043651338        -2.5717297011         2.7639021789
        0.5750000000         0.6386689373         2.9142364674         1.2485078886         2.8018132564        -2.3057804042         3.6667261031
        0.5800000000         0.7877619449         2.9627842081         1.2663741766         2.7890538691        -1.8403691346         4.5226988783
        0.5850000000         0.9267894196         3.0077090403         1.2918974451         2.7865019916        -1.1754958923         5.3208834160
        0.5900000000         1.0539749547         3.0485217186         1.3174207137         2.7737426043        -0.5106226501         6.0510810099
        0.5950000000         1.1676934524         3.0847863978         1.3378393285         2.7839501142         0.0212759438         6.7039616486
        0.6000000000         1.2664918883         3.1161224635         1.3480486360         2.7813982367         0.2872252407         7.2711832288
        0.6050000000         1.3491078773         3.1422059337         1.3454963091         2.7788463592         0.2207379164         7.7454981454
        0.6100000000         1.4144858038         3.1627705152         1.3480486360         2.7813982367         0.2872252407         8.1208458970
        0.6150000000         1.4617903092         3.1776083807         1.3480486360         2.7813982367         0.2872252407         8.3924305231
        0.6200000000         1.4904169658         3.1865707210         1.3531532897         2.7890538691         0.4201998891         8.5567818839
        0.6250000000         1.5000000000         3.1895681114         1.3454963091         2.7865019916         0.2207379164         8.6118000000
        0.6300000000         1.4904169658         3.1865707210         1.3403916554         2.7865019916         0.0877632680         8.5567818839
        0.6350000000         1.4617903092         3.1776083807         1.3301823480         2.7788463592        -0.1781860289         8.3924305231
        0.6400000000         1.4144858038         3.1627705152         1.3301823480         2.7890538691        -0.1781860289         8.1208458970
        0.6450000000         1.3491078773         3.1422059337         1.3378393285         2.7916057465         0.0212759438         7.7454981454
        0.6500000000         1.2664918883         3.1161224635         1.3454963091         2.7941576240         0.2207379164         7.2711832288
        0.6550000000         1.1676934524         3.0847863978         1.3301823480         2.7813982367        -0.1781860289         6.7039616486
        0.6600000000         1.0539749547         3.0485217186         1.3378393285         2.7890538691         0.0212759438         6.0510810099
        0.6650000000         0.9267894196         3.0077090403         1.3659149240         2.7865019916         0.7526365102         5.3208834160
