% f=4.10Hz  n_cycles=5  N_total=243  dt=0.005000
% Amp=400.00deg/s
Time[s]              OmegaCmd[deg/s]      Vc[V]                Vg[V]                Pot[V]               Omega[rad/s]         Omega_target[rad/s] 
        0.0000000000         0.0000000000         2.4974092728         1.3378393285         1.0103952802        -0.0026594930         0.0000000000
        0.0050000000        51.3797720801         2.7566345521         1.3327346748         1.0027396478        -0.1356341414         0.8967461917
        0.0100000000       101.9082902734         2.8168761355         1.3429439823         1.0154990351         0.1303151555         1.7786352003
        0.0150000000       150.7484041649         2.8730688257         1.3352870017         1.0103952802        -0.0691468172         2.6310559948
        0.0200000000       197.0909366193         2.9247138872         1.3429439823         1.0180509125         0.1303151555         3.4398857698
        0.0250000000       240.1680901304         2.9714443311         1.3454963091         1.0154990351         0.1968024797         4.1917239310
        0.0300000000       279.2661675974         3.0129678925         1.3352870017         1.0103952802        -0.0691468172         4.8741141140
        0.0350000000       313.7373967734         3.0490184306         1.3480486360         1.0103952802         0.2632898039         5.4757505603
        0.0400000000       343.0106624775         3.0793257906         1.3378393285         1.0103952802        -0.0026594930         5.9866654297
        0.0450000000       366.6009687628         3.1036089374         1.3454963091         1.0154990351         0.1968024797         6.3983939459
        0.0500000000       384.1174742708         3.1215910066         1.3454963091         1.0154990351         0.1968024797         6.7041146405
        0.0550000000       395.2699676441         3.1330293786         1.3429439823         1.0103952802         0.1303151555         6.8987623696
        0.0600000000       399.8736757133         3.1377503738         1.3454963091         1.0154990351         0.1968024797         6.9791122332
        0.0650000000       397.8523247966         3.1356775271         1.3327346748         1.0027396478        -0.1356341414         6.9438330044
        0.0700000000       389.2394043929         3.1268447679         1.3403916554         1.0103952802         0.0638278313         6.7935091852
        0.0750000000       374.1776123319         3.1113905214         1.3454963091         1.0154990351         0.1968024797         6.5306313224
        0.0800000000       352.9164905740         3.0895345105         1.3454963091         1.0103952802         0.1968024797         6.1595547451
        0.0850000000       325.8082908282         3.0615443207         1.3557056165         1.0154990351         0.4627517766         5.6864274052
        0.0900000000       293.3021384890         3.0277021806         1.3684672508         1.0154990351         0.7951883978         5.1190880198
        0.0950000000       255.9365915805         2.9882829777         1.4680079982         1.0333621773         3.3881940426         4.4669361994
        0.1000000000       214.3307179916         2.9435520745         1.4986359205         1.0512253195         4.1860419333         3.7407767171
        0.1050000000       169.1738388341         2.8937866015         1.5011882474         1.0512253195         4.2525292575         2.9526404959
        0.1100000000       121.2141078531         2.8393177969         1.4935312668         1.0512253195         4.0530672849         2.1155852819
        0.1150000000        71.2461161057         2.7805861886         1.4858742862         1.0665365843         3.8536053122         1.2434793053
        0.1200000000        20.0977272719         2.7181974366         1.4884266131         1.0920553588         3.9200926364         0.3507715131
        0.1250000000       -31.3836382911         2.2601931605         1.4731126519         1.0971591138         3.5211686910        -0.5477478194
        0.1300000000       -82.3450435080         2.1895043027         1.4680079982         1.1175741334         3.3881940426        -1.4371921319
        0.1350000000      -131.9421659435         2.1254192721         1.4450370565         1.1226778884         2.7898081246        -2.3028252179
        0.1400000000      -179.3532864360         2.0677519654         1.4220661148         1.1303335207         2.1914222065        -3.1303053726
        0.1450000000      -223.7929032409         2.0162585356         1.4067521537         1.1379891531         1.7924982612        -3.9059230042
        0.1500000000      -264.5247461295         1.9707417144         1.3863335388         1.1430929080         1.2605996673        -4.6168277730
        0.1550000000      -300.8739748256         1.9311172231         1.3608102703         1.1405410306         0.5957264251        -5.2512414943
        0.1600000000      -332.2383596783         1.8974384652         1.3506009628         1.1584041728         0.3297771282        -5.7986532778
        0.1650000000      -358.0982593299         1.8698825906         1.3403916554         1.1558522953         0.0638278313        -6.2499936710
        0.1700000000      -378.0252300719         1.8487068157         1.3480486360         1.1481966629         0.2632898039        -6.5977849204
        0.1750000000      -391.6891242487         1.8341878041         1.3327346748         1.1430929080        -0.1356341414        -6.8362648624
        0.1800000000      -398.8635601042         1.8265585327         1.3327346748         1.1430929080        -0.1356341414        -6.9614823900
        0.1850000000      -399.4296724478         1.8259562638         1.3429439823         1.1584041728         0.1303151555        -6.9713629144
        0.1900000000      -393.3780819981         1.8323922791         1.3301823480         1.1456447855        -0.2021214656        -6.8657427360
        0.1950000000      -380.8090507783         1.8457494030         1.3429439823         1.1558522953         0.1303151555        -6.6463717575
        0.2000000000      -361.9308209864         1.8658078054         1.3250776943         1.1481966629        -0.3350961141        -6.3168844907
        0.2050000000      -337.0561648642         1.8922939578         1.3174207137         1.1456447855        -0.5345580868        -5.8827398410
        0.2100000000      -306.5972027237         1.9249427792         1.3097637331         1.1481966629        -0.7340200595        -5.3511306649
        0.2150000000      -271.0585749880         1.9635597123         1.2612695229         1.1379891531        -1.9972792198        -4.7308645993
        0.2200000000      -231.0290813689         2.0080682789         1.2102229857         1.1328853982        -3.3270257043        -4.0322181377
        0.2250000000      -187.1719257042         2.0585298571         1.1821473903         1.1226778884        -4.0583862708        -3.2667663708
        0.2300000000      -140.2137280765         2.1151259817         1.1770427366         1.1048147461        -4.1913609193        -2.4471912114
        0.2350000000       -90.9324862587         2.1780989846         1.1846997172         1.0869516039        -3.9918989466        -1.5870712822
        0.2400000000       -40.1446859405         2.2476535661         1.1898043709         1.0665365843        -3.8589242981        -0.7006569468
        0.2450000000        11.3082267081         2.6221767135         1.2102229857         1.0512253195        -3.3270257043         0.1973657886
        0.2500000000        62.5737860161         2.7701736674         1.2127753126         1.0461215646        -3.2605383801         1.0921185914
        0.2550000000       112.8026303600         2.8295778573         1.2229846200         1.0333621773        -2.9945890832         1.9687773047
        0.2600000000       161.1625742855         2.8848095351         1.2459555617         1.0231546675        -2.3962031651         2.8128175523
        0.2650000000       206.8523960553         2.9354037486         1.2791358108         1.0231546675        -1.5318679502         3.6102553768
        0.2700000000       249.1151121952         2.9810146931         1.2893451183         1.0129471576        -1.2659186533         4.3478789243
        0.2750000000       287.2505191053         3.0213594840         1.3072114063         1.0027396478        -0.8005073837         5.0134673364
        0.2800000000       320.6267939483         3.0561729034         1.3403916554         1.0078434027         0.0638278313         5.5959932245
        0.2850000000       348.6909626154         3.0851821698         1.3352870017         1.0078434027        -0.0691468172         6.0858053696
        0.2900000000       370.9780613339         3.1081052121         1.3429439823         1.0154990351         0.1303151555         6.4747886229
        0.2950000000       387.1188401315         3.1246697702         1.3378393285         1.0103952802        -0.0026594930         6.7564983568
        0.3000000000       396.8458805258         3.1346454453         1.3352870017         1.0001877703        -0.0691468172         6.9262672382
        0.3050000000       399.9980260807         3.1378778929         1.3327346748         1.0027396478        -0.1356341414         6.9812825566
        0.3100000000       396.5230524278         3.1343143930         1.3429439823         1.0129471576         0.1303151555         6.9206328249
        0.3150000000       386.4785325127         3.1240129884         1.3403916554         1.0078434027         0.0638278313         6.7453228806
        0.3200000000       370.0308827338         3.1071324346         1.3429439823         1.0078434027         0.1303151555         6.4582572378
        0.3250000000       347.4526057753         3.0839059932         1.3454963091         1.0078434027         0.1968024797         6.0641919654
        0.3300000000       319.1177758154         3.0546070820         1.3608102703         1.0027396478         0.5957264251         5.5696558896
        0.3350000000       285.4958409106         3.0195176171         1.3633625971         1.0129471576         0.6622137493         4.9828424246
        0.3400000000       247.1438452361         2.9789097814         1.3939905194         1.0180509125         1.4600616400         4.3134738254
        0.3450000000       204.6972000457         2.9330488830         1.4501417102         1.0308102998         2.9227827730         3.5726401104
        0.3500000000       158.8591562539         2.8822196932         1.4858742862         1.0384659322         3.8536053122         2.7726153236
        0.3550000000       110.3891530595         2.8267724839         1.4884266131         1.0512253195         3.9200926364         1.9266541794
        0.3600000000        60.0902356483         2.7671794863         1.4807696325         1.0665365843         3.7206306637         1.0487724604
        0.3650000000         8.7957504370         2.5944557240         1.4756649788         1.0818478490         3.5876560153         0.1535148053
        0.3700000000       -42.6444617101         2.2441063894         1.4629033445         1.0869516039         3.2552193941        -0.7442862646
        0.3750000000       -93.3781455424         2.1748756651         1.4475893834         1.0971591138         2.8562954488        -1.6297560891
        0.3800000000      -142.5647514853         2.1122192527         1.4475893834         1.1201260109         2.8562954488        -2.4882243107
        0.3850000000      -189.3893617649         2.0559278347         1.4169614611         1.1277816433         2.0584475581        -3.3054679310
        0.3900000000      -233.0761918674         2.0057600514         1.3914381925         1.1303335207         1.3935743158        -4.0679469561
        0.3950000000      -272.9014436438         1.9615391912         1.3812288851         1.1379891531         1.1276250189        -4.7630287250
        0.4000000000      -308.2052971103         1.9232105208         1.3531532897         1.1379891531         0.3962644524        -5.3791972067
        0.4050000000      -338.4028422671         1.8908570085         1.3403916554         1.1379891531         0.0638278313        -5.9062437957
        0.4100000000      -362.9937698164         1.8646779291         1.3403916554         1.1430929080         0.0638278313        -6.3354364475
        0.4150000000      -381.5706602270         1.8449402736         1.3301823480         1.1328853982        -0.2021214656        -6.6596643500
        0.4200000000      -393.8257338117         1.8319163346         1.3454963091         1.1456447855         0.1968024797        -6.8735557341
        0.4250000000      -399.5559499848         1.8258219152         1.3557056165         1.1481966629         0.4627517766        -6.9735668732
        0.4300000000      -398.6663712136         1.8267683054         1.3352870017         1.1379891531        -0.0691468172        -6.9580407947
        0.4350000000      -391.1717359323         1.8347377843         1.3301823480         1.1328853982        -0.2021214656        -6.8272347328
        0.4400000000      -377.1962143571         1.8495875092         1.3301823480         1.1328853982        -0.2021214656        -6.5833158666
        0.4450000000      -356.9713512495         1.8710810268         1.3276300211         1.1379891531        -0.2686087899        -6.2303254146
        0.4500000000      -330.8322297098         1.8989411204         1.3174207137         1.1303335207        -0.5345580868        -5.7741116802
        0.4550000000      -299.2119195614         1.9329131543         1.3072114063         1.1303335207        -0.8005073837        -5.2222331576
        0.4600000000      -262.6343023012         1.9728251964         1.2587171960         1.1277816433        -2.0637665440        -4.5838333038
        0.4650000000      -221.7053914947         2.0186305226         1.2025660052         1.1252297658        -3.5264876770        -3.8694890510
        0.4700000000      -177.1032924156         2.0704198329         1.1668334292         1.1099185011        -4.4573102162        -3.0910355688
        0.4750000000      -129.5669672793         2.1283945427         1.1795950634         1.0895034814        -4.1248735950        -2.2613701808
        0.4800000000       -79.8839922058         2.1927983759         1.1795950634         1.0665365843        -4.1248735950        -1.3942386836
        0.4850000000       -28.8775087531         2.2638114157         1.1974613514         1.0563290744        -3.6594623254        -0.5040076075
        0.4900000000        22.6074137928         2.7213142474         1.2153276394         1.0435696871        -3.1940510559         0.3945738060
        0.4950000000        73.7177794249         2.7835416749         1.2153276394         1.0333621773        -3.1940510559         1.2866179682
        0.5000000000       123.6067977500         2.8420778522         1.2280892737         1.0180509125        -2.8616144347         2.1573455986
        0.5050000000       171.4479135100         2.8963263294         1.2561648691         1.0154990351        -2.1302538682         2.9923305864
        0.5100000000       216.4485008507         2.9458532534         1.2791358108         1.0078434027        -1.5318679502         3.7777390009
        0.5150000000       257.8629954510         2.9903312453         1.2995544257         1.0027396478        -0.9999693564         4.5005582897
        0.5200000000       295.0052469433         3.0294845842         1.3199730405         0.9976358929        -0.4680707626         5.1488128698
        0.5250000000       327.2598869700         3.0630477460         1.3403916554         1.0001877703         0.0638278313         5.7117625373
        0.5300000000       354.0925245330         3.0907452500         1.3403916554         1.0027396478         0.0638278313         6.1800804098
        0.5350000000       375.0585997189         3.1122949406         1.3352870017         1.0001877703        -0.0691468172         6.5460074530
        0.5400000000       389.8107491146         3.1274307493         1.3429439823         1.0078434027         0.1303151555         6.8034810317
        0.5450000000       398.1045608825         3.1359361884         1.3301823480         0.9925321379        -0.2021214656         6.9482353546
        0.5500000000       399.8026241463         3.1376775117         1.3403916554         1.0052915252         0.0638278313         6.9778721495
        0.5550000000       394.8768055979         3.1326261954         1.3378393285         1.0027396478        -0.0026594930         6.8919003974
        0.5600000000       383.4087156070         3.1208638995         1.3429439823         1.0052915252         0.1303151555         6.6917444682
        0.5650000000       365.5883561096         3.1025684152         1.3454963091         1.0052915252         0.1968024797         6.3807205211
        0.5700000000       341.7109726797         3.0779848449         1.3506009628         1.0001877703         0.3297771282         5.9639815635
        0.5750000000       312.1721629353         3.0473908702         1.3582579434         0.9976358929         0.5292391008         5.4484320763
        0.5800000000       277.4613223251         3.0110671861         1.3863335388         1.0129471576         1.2605996673         4.8426136215
        0.5850000000       238.1535358833         2.9692833990         1.4169614611         1.0180509125         2.0584475581         4.1565633264
        0.5900000000       194.9000502901         2.9223060464         1.4577986908         1.0206027900         3.1222447457         3.4016475899
        0.5950000000       148.4174840948         2.8704297956         1.4986359205         1.0410178097         4.1860419333         2.5903737650
        0.6000000000        99.4759548659         2.8140267224         1.4782173056         1.0563290744         3.6541433395         1.7361829390
        0.6050000000        48.8863199760         2.7536034241         1.4705603251         1.0741922166         3.4546813668         0.8532272428
        0.6100000000        -2.5132575862         2.4696796627         1.4756649788         1.0843997265         3.5876560153        -0.0438646198
        0.6150000000       -53.8711957989         2.2283399901         1.4756649788         1.0971591138         3.5876560153        -0.9402297387
        0.6200000000      -104.3366025160         2.1605644139         1.4603510177         1.1073666236         3.1887320699        -1.8210172442
        0.6250000000      -153.0733729460         2.0993260412         1.4348277491         1.1099185011         2.5238588276        -2.6716343550
        0.6300000000      -199.2740421358         2.0443985076         1.4093044805         1.1150222560         1.8589855854        -3.4779881490
        0.6350000000      -242.1731629524         1.9955476356         1.3863335388         1.1175741334         1.2605996673        -4.2267190535
        0.6400000000      -281.0599879195         1.9526200412         1.3684672508         1.1303335207         0.7951883978        -4.9054221848
        0.6450000000      -315.2902447962         1.9155912765         1.3454963091         1.1328853982         0.1968024797        -5.5028528711
        0.6500000000      -344.2968108016         1.8845728048         1.3327346748         1.1328853982        -0.1356341414        -6.0091129526
        0.6550000000      -367.5991086374         1.8597836316         1.3403916554         1.1328853982         0.0638278313        -6.4158147731
        0.6600000000      -384.8110686344         1.8414974591         1.3352870017         1.1303335207        -0.0691468172        -6.7162201458
        0.6650000000      -395.6475251088         1.8299791799         1.3454963091         1.1379891531         0.1968024797        -6.9053519905
