% f=2.90Hz  n_cycles=5  N_total=344  dt=0.005000
% Amp=1.5000V  K_lin=5.741200
Time[s]              Vcmd[V]              Vc[V]                Vg[V]                Pot[V]               Omega[rad/s]         Omega_target[rad/s] 
        0.0000000000         0.0000000000         2.5000000000         1.3429439823         2.6002149371         0.1542505922         0.0000000000
        0.0050000000         0.1364703059         2.7477664326         1.3378393285         2.5976630597         0.0212759438         0.7835033200
        0.0100000000         0.2718086454         2.7930884246         1.3378393285         2.5976630597         0.0212759438         1.5605077952
        0.0150000000         0.4048924417         2.8373203713         1.3301823480         2.5874555498        -0.1781860289         2.3245684862
        0.0200000000         0.5346178181         2.8801233748         1.3352870017         2.5976630597        -0.0452113805         3.0693478171
        0.0250000000         0.6599087548         2.9211763359         1.3403916554         2.5951111822         0.0877632680         3.7886681430
        0.0300000000         0.7797260139         2.9601773937         1.3378393285         2.5976630597         0.0212759438         4.4765629912
        0.0350000000         0.8930757596         2.9968451321         1.3327346748         2.5951111822        -0.1116987047         5.1273265508
        0.0400000000         0.9990178012         3.0309195826         1.3454963091         2.6027668146         0.2207379164         5.7355610000
        0.0450000000         1.0966733921         3.0621630518         1.3429439823         2.5951111822         0.1542505922         6.2962212787
        0.0500000000         1.1852325186         3.0903607972         1.3429439823         2.5976630597         0.1542505922         6.8046569356
        0.0550000000         1.2639606182         3.1153215754         1.3531532897         2.6027668146         0.4201998891         7.2566507014
        0.0600000000         1.3322046732         3.1368780826         1.3506009628         2.5976630597         0.3537125649         7.6484534699
        0.0650000000         1.3893986265         3.1548873034         1.3480486360         2.6002149371         0.2872252407         7.9768153946
        0.0700000000         1.4350680773         3.1692307844         1.3480486360         2.6027668146         0.2872252407         8.2390128456
        0.0750000000         1.4688342159         3.1798148428         1.3557056165         2.6104224470         0.4866872133         8.4328710005
        0.0800000000         1.4904169658         3.1865707210         1.3454963091         2.6002149371         0.2207379164         8.5567818839
        0.0850000000         1.4996373067         3.1894546936         1.3403916554         2.6053186920         0.0877632680         8.6097177050
        0.0900000000         1.4964187595         3.1884481338         1.3378393285         2.6053186920         0.0212759438         8.5912393823
        0.0950000000         1.4807880210         3.1835575399         1.3403916554         2.6027668146         0.0877632680         8.5015001861
        0.1000000000         1.4528747417         3.1748145267         1.3378393285         2.6027668146         0.0212759438         8.3412444670
        0.1050000000         1.4129104511         3.1622757779         1.3480486360         2.6104224470         0.2872252407         8.1118014816
        0.1100000000         1.3612266368         3.1460229599         1.3403916554         2.6002149371         0.0877632680         7.8150743673
        0.1150000000         1.2982519954         3.1261625902         1.4424847297         2.6180780793         2.7472562370         7.4535243559
        0.1200000000         1.2245088761         3.1028258567         1.5905196873         2.6282855892         6.6035210422         7.0301503593
        0.1250000000         1.1406089484         3.0761683762         1.5828627068         2.6563562412         6.4040590695         6.5484640946
        0.1300000000         1.0472481285         3.0463698841         1.5624440919         2.6767712609         5.8721604757         6.0124609553
        0.1350000000         0.9452008068         3.0136338399         1.5394731502         2.6997381580         5.2737745577         5.4265868719
        0.1400000000         0.8353134247         2.9781869332         1.5113975548         2.7201531777         4.5424139912         4.7957014341
        0.1450000000         0.7184974540         2.9402784725         1.4858742862         2.7303606875         3.8775407489         4.1250375827
        0.1500000000         0.5957218360         2.9001796335         1.4884266131         2.7456719523         3.9440280731         3.4201582046
        0.1550000000         0.4680049450         2.8581825447         1.4884266131         2.7711907269         3.9440280731         2.6869099904
        0.1600000000         0.3364061414         2.8145991825         1.4858742862         2.7788463592         3.8775407489         1.9313749391
        0.1650000000         0.2020169842         2.7697600479         1.5088452279         2.8094688888         4.4759266669         1.1598199100
        0.1700000000         0.0659521775         2.7240125944         1.4986359205         2.8120207662         4.2099773700         0.3786446413
        0.1750000000        -0.0706596761         2.2504470876         1.5037405742         2.8400914183         4.3429520185        -0.4056713322
        0.1800000000        -0.2066854360         2.2109374182         1.4858742862         2.8502989281         3.8775407489        -1.1866224253
        0.1850000000        -0.3409968235         2.1716657764         1.4654556714         2.8630583154         3.3456421551        -1.9577309629
        0.1900000000        -0.4724797795         2.1329659511         1.4424847297         2.8758177027         2.7472562370        -2.7126009100
        0.1950000000        -0.6000437059         2.0951735200         1.4220661148         2.8860252125         2.2153576432        -3.4449709241
        0.2000000000        -0.7226305112         2.0586227739         1.3965428462         2.8936808449         1.5504844010        -4.1487662906
        0.2050000000        -0.8392233872         2.0236434085         1.3837812120         2.8987845998         1.2180477798        -4.8181493103
        0.2100000000        -0.9488552429         1.9905570137         1.3557056165         2.8962327224         0.4866872133        -5.4475677204
        0.2150000000        -1.0506167262         1.9596734050         1.3352870017         2.9089921097        -0.0452113805        -6.0318007483
        0.2200000000        -1.1436637665         1.9312868524         1.3276300211         2.8936808449        -0.2446733532        -6.5660024163
        0.2250000000        -1.2272245761         1.9056722778         1.3301823480         2.8987845998        -0.1781860289        -7.0457417365
        0.2300000000        -1.3006060517         1.8830815026         1.3378393285         2.9013364773         0.0212759438        -7.4670394643
        0.2350000000        -1.3631995235         1.8637396367         1.3403916554         2.8936808449         0.0877632680        -7.8264011045
        0.2400000000        -1.4144858038         1.8478417070         1.3327346748         2.8885770900        -0.1116987047        -8.1208458970
        0.2450000000        -1.4540394936         1.8355496248         1.3378393285         2.9064402322         0.0212759438        -8.3479315407
        0.2500000000        -1.4815325109         1.8269895878         1.3301823480         2.8911289674        -0.1781860289        -8.5057744515
        0.2550000000        -1.4967368122         1.8222500042         1.3429439823         2.9038883547         0.1542505922        -8.5930653861
        0.2600000000        -1.4995262839         1.8213800120         1.3429439823         2.9038883547         0.1542505922        -8.6090803013
        0.2650000000        -1.4898777886         1.8243886452         1.3301823480         2.8911289674        -0.1781860289        -8.5536863597
        0.2700000000        -1.4678713565         1.8312446806         1.3301823480         2.8936808449        -0.1781860289        -8.4273430319
        0.2750000000        -1.4336895222         1.8418771686         1.3378393285         2.8987845998         0.0212759438        -8.2310982848
        0.2800000000        -1.3876158103         1.8561766288         1.3429439823         2.9038883547         0.1542505922        -7.9665798898
        0.2850000000        -1.3300323836         1.8739968675         1.2536125423         2.8834733351        -2.1728057557        -7.6359819204
        0.2900000000        -1.2614168734         1.8951573515         1.0928159503         2.8707139478        -6.3615071820        -7.2420465538
        0.2950000000        -1.1823384180         1.9194460573         1.1311008532         2.8554026830        -5.3641973186        -6.7880413253
        0.3000000000        -1.0934529411         1.9466227032         1.1489671412         2.8298839084        -4.8987860490        -6.2777320256
        0.3050000000        -0.9954977121         1.9764222649         1.1668334292         2.8222282761        -4.4333747794        -5.7153514650
        0.3100000000        -0.8892852302         2.0085586764         1.1821473903         2.8069170113        -4.0344508341        -5.1055643639
        0.3150000000        -0.7756964852         2.0427286209         1.1898043709         2.7813982367        -3.8349888614        -4.4534286609
        0.3200000000        -0.6556736500         2.0786153253         1.1898043709         2.7609832170        -3.8349888614        -3.7643535592
        0.3250000000        -0.5302122657         2.1158922829         1.1846997172         2.7609832170        -3.9679635098        -3.0440546597
        0.3300000000        -0.4003529840         2.1542268408         1.1795950634         2.7380163199        -4.1009381583        -2.2985065516
        0.3350000000        -0.2671729354         2.1932836032         1.1872520440         2.7201531777        -3.9014761856        -1.5338932567
        0.3400000000        -0.1317767948         2.2327276149         1.1923566977         2.7073937904        -3.7685015372        -0.7565569345
        0.3450000000         0.0047123812         2.5000000000         1.1846997172         2.6869787707        -3.9679635098         0.0270547231
        0.3500000000         0.1411624700         2.7493435762         1.1949090246         2.6767712609        -3.7020142129         0.8104419726
        0.3550000000         0.2764416728         2.7946338029         1.2076706589         2.6640118736        -3.3695775918         1.5871069321
        0.3600000000         0.4094279033         2.8388220195         1.2204322931         2.6512524863        -3.0371409707         2.3506074783
        0.3650000000         0.5390180940         2.8815699154         1.2280892737         2.6384930990        -2.8376789980         3.0946106813
        0.3700000000         0.6641373466         2.9225570320         1.2663741766         2.6308374666        -1.8403691346         3.8129453341
        0.3750000000         0.7837478471         2.9614821948         1.2893451183         2.6282855892        -1.2419832166         4.4996531396
        0.3800000000         0.8968574746         2.9980647113         1.3097637331         2.6231818342        -0.7100846227         5.1490381331
        0.3850000000         1.0025280303         3.0320453687         1.3403916554         2.6308374666         0.0877632680         5.7557139273
        0.3900000000         1.0998830193         3.0631872542         1.3480486360         2.6282855892         0.2872252407         6.3146483906
        0.3950000000         1.1881149214         3.0912764274         1.3327346748         2.6180780793        -0.1116987047         6.8212053866
        0.4000000000         1.2664918883         3.1161224635         1.3403916554         2.6257337117         0.0877632680         7.2711832288
        0.4050000000         1.3343638146         3.1375588908         1.3352870017         2.6257337117        -0.0452113805         7.6608495322
        0.4100000000         1.3911677300         3.1554435370         1.3327346748         2.6282855892        -0.1116987047         7.9869721715
        0.4150000000         1.4364324689         3.1696587996         1.3403916554         2.6257337117         0.0877632680         8.2468460907
        0.4200000000         1.4697825786         3.1801118530         1.3327346748         2.6180780793        -0.1116987047         8.4383157401
        0.4250000000         1.4909414332         3.1867348011         1.3327346748         2.6282855892        -0.1116987047         8.5597929562
        0.4300000000         1.4997335286         3.1894847834         1.3429439823         2.6180780793         0.1542505922         8.6102701342
        0.4350000000         1.4960859378         3.1883440388         1.3454963091         2.6282855892         0.2207379164         8.5893285864
        0.4400000000         1.4800289163         3.1833199326         1.3506009628         2.6282855892         0.3537125649         8.4971420143
        0.4450000000         1.4516956505         3.1744449446         1.3327346748         2.6282855892        -0.1116987047         8.3344750686
        0.4500000000         1.4113211534         3.1617766220         1.3454963091         2.6308374666         0.2207379164         8.1026770061
        0.4550000000         1.3592403153         3.1453974902         1.3403916554         2.6333893441         0.0877632680         7.8036704984
        0.4600000000         1.2958851258         3.1254149211         1.3710195777         2.6282855892         0.8856111587         7.4399356842
        0.4650000000         1.2217810906         3.1019609491         1.5598917651         2.6538043638         5.8056731515         7.0144895974
        0.4700000000         1.1375428729         3.0751920284         1.5905196873         2.6818750158         6.6035210422         6.5308611421
        0.4750000000         1.0438691949         3.0452887196         1.5496824576         2.6895306482         5.5397238546         5.9930618217
        0.4800000000         0.9415370419         3.0124552920         1.5394731502         2.7201531777         5.2737745577         5.4055524652
        0.4850000000         0.8313952181         2.9769192262         1.5062929011         2.7329125650         4.4094393427         4.7732062262
        0.4900000000         0.7143573055         2.9389305979         1.4986359205         2.7533275847         4.2099773700         4.1012681623
        0.4950000000         0.5913940865         2.8987613217         1.4935312668         2.7660869720         4.0770027216         3.3953117295
        0.5000000000         0.4635254916         2.8567042300         1.4884266131         2.7762944818         3.9440280731         2.6611925522
        0.5050000000         0.3318121392         2.8130719615         1.5011882474         2.7992613789         4.2764646943         1.9049998535
        0.5100000000         0.1973465386         2.7681956293         1.4909789399         2.8094688888         4.0105153974         1.1330059476
        0.5150000000         0.0612440280         2.7224232402         1.5011882474         2.8375395408         4.2764646943         0.3516142134
        0.5200000000        -0.0753664773         2.2490843304         1.4858742862         2.8400914183         3.8775407489        -0.4326940193
        0.5250000000        -0.2113518479         2.2095773551         1.4884266131         2.8681620703         3.9440280731        -1.2134132292
        0.5300000000        -0.3455841400         2.1703198561         1.4577986908         2.8758177027         3.1461801824        -1.9840676647
        0.5350000000        -0.4769499507         2.1316457324         1.4399324028         2.8860252125         2.6807689128        -2.7382650572
        0.5400000000        -0.6043596536         2.0938905699         1.4195137880         2.8936808449         2.1488703190        -3.4697496431
        0.5450000000        -0.7267564363         2.0573885574         1.3863335388         2.8962327224         1.2845351041        -4.1724540519
        0.5500000000        -0.8431250668         2.0224691704         1.3863335388         2.9115439871         1.2845351041        -4.8405496334
        0.5550000000        -0.9525003141         1.9894536548         1.3531532897         2.9038883547         0.4201998891        -5.4684948036
        0.5600000000        -1.0539749547         1.9586513531         1.3378393285         2.9140958646         0.0212759438        -6.0510810099
        0.5650000000        -1.1467072971         1.9303559315         1.3327346748         2.9191996195        -0.1116987047        -6.5834759343
        0.5700000000        -1.2299281640         1.9048415773         1.3276300211         2.9038883547        -0.2446733532        -7.0612635751
        0.5750000000        -1.3029472717         1.8823592496         1.3276300211         2.9115439871        -0.2446733532        -7.4804808760
        0.5800000000        -1.3651589560         1.8631330755         1.3403916554         2.9140958646         0.0877632680        -7.8376505983
        0.5850000000        -1.4160471962         1.8473569883         1.3352870017         2.9064402322        -0.0452113805        -8.1298101629
        0.5900000000        -1.4551898947         1.8351917082         1.3352870017         2.9089921097        -0.0452113805        -8.3545362237
        0.5950000000        -1.4822623787         1.8267621612         1.3378393285         2.9089921097         0.0212759438        -8.5099647684
        0.6000000000        -1.4970400926         1.8221554225         1.3429439823         2.9089921097         0.1542505922        -8.5948065799
        0.6050000000        -1.4994004615         1.8214192570         1.3429439823         2.9115439871         0.1542505922        -8.6083579294
        0.6100000000        -1.4893239069         1.8245613093         1.3429439823         2.9166477420         0.1542505922        -8.5505064140
        0.6150000000        -1.4668940097         1.8315489736         1.3352870017         2.9115439871        -0.0452113805        -8.4217318888
        0.6200000000        -1.4322968171         1.8423099480         1.3378393285         2.9115439871         0.0212759438        -8.2231024864
        0.6250000000        -1.3858192988         1.8567334524         1.3352870017         2.9064402322        -0.0452113805        -7.9562657581
        0.6300000000        -1.3278469670         1.8746720666         1.2306416006         2.9064402322        -2.7711916738        -7.6234350069
        0.6350000000        -1.2588606790         1.8959441215         1.0902636235         2.8834733351        -6.4279945062        -7.2273709302
        0.6400000000        -1.1794326482         1.9203365636         1.1336531800         2.8630583154        -5.2977099944        -6.7713587199
        0.6450000000        -1.0902216982         1.9476081981         1.1617287755         2.8451951732        -4.5663494279        -6.2591808139
        0.6500000000        -0.9919677980         1.9774932127         1.1693857560         2.8196763986        -4.3668874552        -5.6950855218
        0.6550000000        -0.8854859240         2.0097048832         1.1974613514         2.8094688888        -3.6355268887        -5.0837517871
        0.6600000000        -0.7716593007         2.0439393658         1.1846997172         2.7890538691        -3.9679635098        -4.4302503770
        0.6650000000        -0.6514320739         2.0798794905         1.1949090246         2.7813982367        -3.7020142129        -3.7400018229
