% f=1.50Hz  n_cycles=5  N_total=666  dt=0.005000
% Amp=1.0000V  K_lin=8.382100
Time[s]              Vcmd[V]              Vc[V]                Vg[V]                Pot[V]               Omega[rad/s]         Omega_target[rad/s] 
        0.0000000000         0.0000000000         2.5000000000         1.3403916554         1.6840909293         0.0804496623         0.0000000000
        0.0050000000         0.0471064507         2.5000000000         1.3429439823         1.6866428068         0.1469369865         0.3948509805
        0.0100000000         0.0941083133         2.7840207189         1.3403916554         1.6866428068         0.0804496623         0.7888252931
        0.0150000000         0.1409012319         2.8064373359         1.3429439823         1.6840909293         0.1469369865         1.1810482162
        0.0200000000         0.1873813146         2.8288908669         1.3352870017         1.6789871744        -0.0525249861         1.5706489170
        0.0250000000         0.2334453639         2.8513317651         1.3327346748         1.6815390519        -0.1190123104         1.9567623844
        0.0300000000         0.2789911060         2.8737092414         1.3352870017         1.6738834195        -0.0525249861         2.3385313499
        0.0350000000         0.3239174182         2.8959713317         1.3301823480         1.6764352970        -0.1854996346         2.7151081911
        0.0400000000         0.3681245527         2.9180649764         1.3403916554         1.6840909293         0.0804496623         3.0856568131
        0.0450000000         0.4115143586         2.9399361144         1.3352870017         1.6789871744        -0.0525249861         3.4493545053
        0.0500000000         0.4539904997         2.9615297926         1.4041998268         1.6789871744         1.7426327680         3.8053937679
        0.0550000000         0.4954586684         2.9827902919         1.4118568074         1.6891946843         1.9420947407         4.1529841047
        0.0600000000         0.5358267950         3.0036612711         1.4067521537         1.6994021941         1.8091200922         4.4913537782
        0.0650000000         0.5750052520         3.0240859298         1.4195137880         1.7096097039         2.1415567133         4.8197515232
        0.0700000000         0.6129070537         3.0440071908         1.4475893834         1.7147134588         2.8729172798         5.1374482144
        0.0750000000         0.6494480483         3.0633679028         1.4067521537         1.7096097039         1.8091200922         5.4437384859
        0.0800000000         0.6845471059         3.0821110636         1.4552463639         1.7351284785         3.0723792525         5.7379422966
        0.0850000000         0.7181262978         3.1001800639         1.4475893834         1.7402322334         2.8729172798         6.0194064405
        0.0900000000         0.7501110696         3.1175189509         1.4399324028         1.7504397433         2.6734553072         6.2875059967
        0.0950000000         0.7804304073         3.1340727103         1.4603510177         1.7580953756         3.2053539010         6.5416457174
        0.1000000000         0.8090169944         3.1497875664         1.4577986908         1.7683028855         3.1388665767         6.7812613486
        0.1050000000         0.8358073614         3.1646112960         1.4782173056         1.7912697826         3.6707651706         7.0058208837
        0.1100000000         0.8607420270         3.1784935552         1.4909789399         1.8040291699         4.0032017917         7.2148257445
        0.1150000000         0.8837656301         3.1913862146         1.4782173056         1.8142366797         3.6707651706         7.4078118880
        0.1200000000         0.9048270525         3.2032436979         1.4909789399         1.8320998220         4.0032017917         7.5843508365
        0.1250000000         0.9238795325         3.2140233215         1.4909789399         1.8346516994         4.0032017917         7.7440506295
        0.1300000000         0.9408807690         3.2236856276         1.5011882474         1.8550667191         4.2691510886         7.8865566935
        0.1350000000         0.9557930148         3.2321947057         1.5113975548         1.8780336162         4.5351003855         8.0115526293
        0.1400000000         0.9685831611         3.2395184981         1.5062929011         1.8907930035         4.4021257370         8.1187609149
        0.1450000000         0.9792228106         3.2456290813         1.5267115159         1.9035523908         4.9340243309         8.2079435209
        0.1500000000         0.9876883406         3.2505029189         1.5190545354         1.9265192879         4.7345623582         8.2789024397
        0.1550000000         0.9939609555         3.2541210809         1.5241591891         1.9469343076         4.8675370066         8.3314801247
        0.1600000000         0.9980267284         3.2564694227         1.5292638428         1.9647974498         5.0005116551         8.3655598404
        0.1650000000         0.9998766325         3.2575387220         1.5318161696         1.9826605920         5.0669989793         8.3810659211
        0.1700000000         0.9995065604         3.2573247685         1.5445778039         2.0030756117         5.3994356004         8.3779639396
        0.1750000000         0.9969173337         3.2558284050         1.5445778039         2.0260425088         5.3994356004         8.3562607831
        0.1800000000         0.9921147013         3.2530555197         1.5394731502         2.0439056511         5.2664609520         8.3160046379
        0.1850000000         0.9851093262         3.2490169880         1.5420254771         2.0643206707         5.3329482762         8.2572848828
        0.1900000000         0.9759167619         3.2437285669         1.5573394382         2.0923913228         5.7318722216         8.1802318902
        0.1950000000         0.9645574185         3.2372107441         1.5445778039         2.1000469552         5.3994356004         8.0850167373
        0.2000000000         0.9510565163         3.2294885441         1.5573394382         2.1383251170         5.7318722216         7.9718508252
        0.2050000000         0.9354440308         3.2205912984         1.5624440919         2.1510845043         5.8648468700         7.8409854108
        0.2100000000         0.9177546257         3.2105523815         1.5522347845         2.1766032789         5.5988975731         7.6927110479
        0.2150000000         0.8980275758         3.1994089210         1.5624440919         2.2021220535         5.8648468700         7.5273569428
        0.2200000000         0.8763066800         3.1872014866         1.5649964188         2.2174333183         5.9313341943         7.3452902228
        0.2250000000         0.8526401644         3.1739737635         1.5573394382         2.2352964605         5.7318722216         7.1469151216
        0.2300000000         0.8270805743         3.1597722168         1.5649964188         2.2684708674         5.9313341943         6.9326720816
        0.2350000000         0.7996846585         3.1446457517         1.5701010725         2.2914377646         6.0643088427         6.7030367759
        0.2400000000         0.7705132428         3.1286453753         1.5598917651         2.3067490293         5.7983595458         6.4585190523
        0.2450000000         0.7396310950         3.1118238641         1.5649964188         2.3297159265         5.9313341943         6.1996618012
        0.2500000000         0.7071067812         3.0942354410         1.5701010725         2.3577865785         6.0643088427         5.9270397506
        0.2550000000         0.6730125135         3.0759354654         1.5573394382         2.3730978433         5.7318722216         5.6412581895
        0.2600000000         0.6374239897         3.0569801396         1.5573394382         2.3909609855         5.7318722216         5.3429516245
        0.2650000000         0.6004202253         3.0374262322         1.5547871113         2.4215835150         5.6653848974         5.0327823707
        0.2700000000         0.5620833779         3.0173308211         1.5675487456         2.4445504121         5.9978215185         4.7114390815
        0.2750000000         0.5224985647         2.9967510567         1.5445778039         2.4598616769         5.3994356004         4.3796352193
        0.2800000000         0.4817536741         2.9757439454         1.5420254771         2.4802766965         5.3329482762         4.0381074717
        0.2850000000         0.4399391699         2.9543661540         1.5496824576         2.5057954711         5.5324102489         3.6876141156
        0.2900000000         0.3971478906         2.9326738332         1.5394731502         2.5236586133         5.2664609520         3.3289333341
        0.2950000000         0.3534748438         2.9107224620         1.5343684965         2.5466255105         5.1334863035         2.9628614880
        0.3000000000         0.3090169944         2.8885667094         1.5343684965         2.5619367752         5.1334863035         2.5902113486
        0.3050000000         0.2638730500         2.8662603138         1.5292638428         2.5772480400         5.0005116551         2.2118102921
        0.3100000000         0.2181432414         2.8438559796         1.5292638428         2.6053186920         5.0005116551         1.8284984637
        0.3150000000         0.1719291003         2.8214052873         1.5292638428         2.6206299568         5.0005116551         1.4411269115
        0.3200000000         0.1253332336         2.7989586188         1.5088452279         2.6308374666         4.4686130613         1.0505556971
        0.3250000000         0.0784590957         2.7765650941         1.5216068622         2.6538043638         4.8010496824         0.6576519863
        0.3300000000         0.0314107591         2.5000000000         1.5037405742         2.6742193834         4.3356384128         0.2632881237
        0.3350000000        -0.0157073173         2.5000000000         1.4909789399         2.6844268933         4.0032017917        -0.1316603044
        0.3400000000        -0.0627905195         2.2114129306         1.4960835936         2.7099456679         4.1361764401        -0.5263164137
        0.3450000000        -0.1097343111         2.1880952619         1.4858742862         2.7252569326         3.8702271432        -0.9198039690
        0.3500000000        -0.1564344650         2.1647092765         1.4680079982         2.7329125650         3.4048158736        -1.3112493294
        0.3550000000        -0.2027872954         2.1413058464         1.4067521537         2.7354644424         1.8091200922        -1.6997833884
        0.3600000000        -0.2486898872         2.1179371467         1.3761242314         2.7482238297         1.0112722015        -2.0845435032
        0.3650000000        -0.2940403252         2.0946565910         1.3429439823         2.7558794621         0.1469369865        -2.4646754101
        0.3700000000        -0.3387379202         2.0715187546         1.3148683868         2.7431200748        -0.5844235800        -2.8393351213
        0.3750000000        -0.3826834324         2.0485792829         1.3327346748         2.7482238297        -0.1190123104        -3.2076907984
        0.3800000000        -0.4257792916         2.0258947862         1.3352870017         2.7482238297        -0.0525249861        -3.5689245998
        0.3850000000        -0.4679298143         2.0035227170         1.3046590794         2.7456719523        -0.8503728769        -3.9222344961
        0.3900000000        -0.5090414158         1.9815212309         1.2561648691         2.7354644424        -2.1136320372        -4.2668360510
        0.3950000000        -0.5490228180         1.9599490285         1.2816881377         2.7329125650        -1.4487587949        -4.6019641627
        0.4000000000        -0.5877852523         1.9388651776         1.2663741766         2.7252569326        -1.8476827403        -4.9268747632
        0.4050000000        -0.6252426563         1.9183289165         1.2204322931         2.7099456679        -3.0444545763        -5.2408464697
        0.4100000000        -0.6613118653         1.8983994355         1.2382985811         2.7073937904        -2.5790433068        -5.5431821863
        0.4150000000        -0.6959127966         1.8791356389         1.2280892737         2.6997381580        -2.8449926037        -5.8332106523
        0.4200000000        -0.7289686274         1.8605958864         1.2178799663         2.6793231383        -3.1109419006        -6.1102879319
        0.4250000000        -0.7604059656         1.8428377154         1.2178799663         2.6742193834        -3.1109419006        -6.3737988443
        0.4300000000        -0.7901550124         1.8259175450         1.2000136783         2.6640118736        -3.5763531702        -6.6231583292
        0.4350000000        -0.8181497174         1.8098903642         1.2000136783         2.6435968539        -3.5763531702        -6.8578127464
        0.4400000000        -0.8443279255         1.7948094066         1.2102229857         2.6384930990        -3.3104038732        -7.0772411044
        0.4450000000        -0.8686315144         1.7807258151         1.1770427366         2.6231818342        -4.1747390882        -7.2809562172
        0.4500000000        -0.8910065242         1.7676882989         1.2000136783         2.6129743244        -3.5763531702        -7.4685057864
        0.4550000000        -0.9114032766         1.7557427903         1.1795950634         2.5900074273        -4.1082517640        -7.6394734051
        0.4600000000        -0.9297764859         1.7449321025         1.1719380829         2.5746961625        -4.3077137366        -7.7934794824
        0.4650000000        -0.9460853588         1.7352955968         1.1693857560         2.5593848978        -4.3742010609        -7.9301820862
        0.4700000000        -0.9602936857         1.7268688630         1.1438624875         2.5364180006        -5.0390743031        -8.0492777027
        0.4750000000        -0.9723699204         1.7196834199         1.1591764486         2.5236586133        -4.6401503578        -8.1505019098
        0.4800000000        -0.9822872507         1.7137664411         1.1642811023         2.5134511035        -4.5071757093        -8.2336299643
        0.4850000000        -0.9900236577         1.7091405119         1.1464148143         2.4904842064        -4.9725869789        -8.2984773013
        0.4900000000        -0.9955619646         1.7058234228         1.1311008532         2.4649654318        -5.3715109243        -8.3448999435
        0.4950000000        -0.9988898750         1.7038280031         1.1515194680         2.4598616769        -4.8396123305        -8.3727948209
        0.5000000000        -1.0000000000         1.7031619996         1.1438624875         2.4368947797        -5.0390743031        -8.3821000000
        0.5050000000        -0.9988898750         1.7038280031         1.1208915457         2.4113760052        -5.6374602212        -8.3727948209
        0.5100000000        -0.9955619646         1.7058234228         1.1285485263         2.3909609855        -5.4379982485        -8.3448999435
        0.5150000000        -0.9900236577         1.7091405119         1.1311008532         2.3782015982        -5.3715109243        -8.2984773013
        0.5200000000        -0.9822872507         1.7137664411         1.1234438726         2.3450271912        -5.5709728970        -8.2336299643
        0.5250000000        -0.9723699204         1.7196834199         1.1055775846         2.3271640490        -6.0363841665        -8.1505019098
        0.5300000000        -0.9602936857         1.7268688630         1.1183392189         2.3041971519        -5.7039475454        -8.0492777027
        0.5350000000        -0.9460853588         1.7352955968         1.1259961995         2.2837821322        -5.5044855727        -7.9301820862
        0.5400000000        -0.9297764859         1.7449321025         1.1030252578         2.2582633576        -6.1028714908        -7.7934794824
        0.5450000000        -0.9114032766         1.7557427903         1.1234438726         2.2429520929        -5.5709728970        -7.6394734051
        0.5500000000        -0.8910065242         1.7676882989         1.1030252578         2.2148814408        -6.1028714908        -7.4685057864
        0.5550000000        -0.8686315144         1.7807258151         1.1311008532         2.2046739310        -5.3715109243        -7.2809562172
        0.5600000000        -0.8443279255         1.7948094066         1.0877112966         2.1689476465        -6.5017954361        -7.0772411044
        0.5650000000        -0.8181497174         1.8098903642         1.1362055069         2.1612920142        -5.2385362758        -6.8578127464
        0.5700000000        -0.7901550124         1.8259175450         1.1106822383         2.1332213621        -5.9034095181        -6.6231583292
        0.5750000000        -0.7604059656         1.8428377154         1.1132345652         2.1102544650        -5.8369221939        -6.3737988443
        0.5800000000        -0.7289686274         1.8605958864         1.1132345652         2.0872875679        -5.8369221939        -6.1102879319
        0.5850000000        -0.6959127966         1.8791356389         1.1157868920         2.0592169158        -5.7704348696        -5.8332106523
        0.5900000000        -0.6613118653         1.8983994355         1.1132345652         2.0362500187        -5.8369221939        -5.5431821863
        0.5950000000        -0.6252426563         1.9183289165         1.1234438726         2.0234906314        -5.5709728970        -5.2408464697
        0.6000000000        -0.5877852523         1.9388651776         1.1311008532         1.9979718568        -5.3715109243        -4.9268747632
        0.6050000000        -0.5490228180         1.9599490285         1.1055775846         1.9903162244        -6.0363841665        -4.6019641627
        0.6100000000        -0.5090414158         1.9815212309         1.1311008532         1.9622455724        -5.3715109243        -4.2668360510
        0.6150000000        -0.4679298143         2.0035227170         1.1668334292         1.9443824302        -4.4406883851        -3.9222344961
        0.6200000000        -0.4257792916         2.0258947862         1.1515194680         1.9239674105        -4.8396123305        -3.5689245998
        0.6250000000        -0.3826834324         2.0485792829         1.1234438726         1.8958967584        -5.5709728970        -3.2076907984
        0.6300000000        -0.3387379202         2.0715187546         1.1668334292         1.8907930035        -4.4406883851        -2.8393351213
        0.6350000000        -0.2940403252         2.0946565910         1.1515194680         1.8754817388        -4.8396123305        -2.4646754101
        0.6400000000        -0.2486898872         2.1179371467         1.1668334292         1.8550667191        -4.4406883851        -2.0845435032
        0.6450000000        -0.2027872954         2.1413058464         1.1464148143         1.8346516994        -4.9725869789        -1.6997833884
        0.6500000000        -0.1564344650         2.1647092765         1.1719380829         1.8116848023        -4.3077137366        -1.3112493294
        0.6550000000        -0.1097343111         2.1880952619         1.1795950634         1.8014772924        -4.1082517640        -0.9198039690
        0.6600000000        -0.0627905195         2.2114129306         1.1846997172         1.7912697826        -3.9752771155        -0.5263164137
        0.6650000000        -0.0157073173         2.5000000000         1.1821473903         1.7683028855        -4.0417644397        -0.1316603044
