% f=2.90Hz  n_cycles=5  N_total=344  dt=0.005000
% Amp=400.00deg/s
Time[s]              OmegaCmd[deg/s]      Vc[V]                Vg[V]                Pot[V]               Omega[rad/s]         Omega_target[rad/s] 
        0.0000000000         0.0000000000         2.4974092728         1.3454963091         1.7223690912         0.1968024797         0.0000000000
        0.0050000000        36.3920815614         2.7383302445         1.3327346748         1.7172653363        -0.1356341414         0.6351616449
        0.0100000000        72.4823054509         2.7820650298         1.3403916554         1.7172653363         0.0638278313         1.2650548796
        0.0150000000       107.9713177842         2.8239572103         1.3378393285         1.7172653363        -0.0026594930         1.8844549931
        0.0200000000       142.5647514853         2.8637850858         1.3378393285         1.7172653363        -0.0026594930         2.4882243107
        0.0250000000       175.9756679424         2.9013719747         1.3352870017         1.7096097039        -0.0691468172         3.0713548090
        0.0300000000       207.9269370483         2.9365767323         1.3378393285         1.7172653363        -0.0026594930         3.6290096551
        0.0350000000       238.1535358833         2.9692833990         1.3352870017         1.7172653363        -0.0691468172         4.1565633264
        0.0400000000       266.4047469737         2.9993911981         1.3352870017         1.7172653363        -0.0691468172         4.6496399776
        0.0450000000       292.4462378919         3.0268060013         1.3429439823         1.7249209687         0.1303151555         5.1041497363
        0.0500000000       316.0620049503         3.0514341425         1.3429439823         1.7223690912         0.1303151555         5.5163226268
        0.0550000000       337.0561648642         3.0731791229         1.3429439823         1.7223690912         0.1303151555         5.8827398410
        0.0600000000       355.2545795254         3.0919413577         1.3352870017         1.7198172138        -0.0691468172         6.2003620955
        0.0650000000       370.5063004076         3.1076207138         1.3301823480         1.7096097039        -0.2021214656         6.4665548415
        0.0700000000       382.6848206235         3.1201212330         1.3301823480         1.7096097039        -0.2021214656         6.6791101173
        0.0750000000       391.6891242487         3.1293571710         1.3429439823         1.7249209687         0.1303151555         6.8362648624
        0.0800000000       397.4445242080         3.1352593387         1.3403916554         1.7223690912         0.0638278313         6.9367155415
        0.0850000000       399.9032817748         3.1377807343         1.3327346748         1.7147134588        -0.1356341414         6.9796289565
        0.0900000000       399.0450025445         3.1369005871         1.3480486360         1.7223690912         0.2632898039         6.9646491580
        0.0950000000       394.8768055979         3.1326261954         1.3454963091         1.7249209687         0.1968024797         6.8919003974
        0.1000000000       387.4332644515         3.1249922774         1.3327346748         1.7121615814        -0.1356341414         6.7619860964
        0.1050000000       376.7761202835         3.1140579343         1.3557056165         1.7223690912         0.4627517766         6.5759838418
        0.1100000000       362.9937698164         3.0999016889         1.4246184417         1.7249209687         2.2579095307         6.3354364475
        0.1150000000       346.2005321012         3.0826153656         1.5139498816         1.7402322334         4.5849658787         6.0423391573
        0.1200000000       326.5357002869         3.0622977757         1.5420254771         1.7631991306         5.3163264452         5.6991230953
        0.1250000000       304.1623862400         3.0390492382         1.5216068622         1.7759585179         4.7844278514         5.3086351006
        0.1300000000       279.2661675974         3.0129678925         1.5139498816         1.8014772924         4.5849658787         4.8741141140
        0.1350000000       252.0535484741         2.9841485498         1.4986359205         1.8142366797         4.1860419333         4.3991643122
        0.1400000000       222.7502465953         2.9526845130         1.4935312668         1.8269960670         4.0530672849         3.8877252127
        0.1450000000       191.5993210579         2.9186724115         1.4960835936         1.8346516994         4.1195546091         3.3440389970
        0.1500000000       158.8591562539         2.8822196932         1.5190545354         1.8627223515         4.7179405271         2.7726153236
        0.1550000000       124.8013186754         2.8434540453         1.5088452279         1.8831373711         4.4519912302         2.1781939217
        0.1600000000        89.7083043798         2.8025337275         1.4833219594         1.8831373711         3.7871179880         1.5657052778
        0.1650000000        53.8711957989         2.7596576265         1.4986359205         1.9137599006         4.1860419333         0.9402297387
        0.1700000000        17.5872473271         2.6914552444         1.4909789399         1.9188636556         3.9865799606         0.3069553722
        0.1750000000       -18.8425802839         2.2895127935         1.4909789399         1.9392786752         3.9865799606        -0.3288650655
        0.1800000000       -55.1161162739         2.2266079652         1.4782173056         1.9494861851         3.6541433395        -0.9619576999
        0.1850000000       -90.9324862587         2.1780989846         1.4552463639         1.9647974498         3.0557574215        -1.5870712822
        0.1900000000      -125.9946078621         2.1328861638         1.4271707685         1.9775568371         2.3243968550        -2.1990207470
        0.1950000000      -160.0116548949         2.0908996815         1.4041998268         1.9826605920         1.7260109369        -2.7927302195
        0.2000000000      -192.7014696407         2.0520520883         1.3812288851         1.9801087146         1.1276250189        -3.3632751187
        0.2050000000      -223.7929032409         2.0162585356         1.3557056165         1.9852124695         0.4627517766        -3.9059230042
        0.2100000000      -253.0280647652         1.9834526069         1.3403916554         1.9852124695         0.0638278313        -4.4161728301
        0.2150000000      -280.1644603135         1.9535970568         1.3250776943         1.9775568371        -0.3350961141        -4.8897922795
        0.2200000000      -304.9770044046         1.9266892148         1.3378393285         1.9826605920        -0.0026594930        -5.3228528697
        0.2250000000      -327.2598869700         1.9027612562         1.3403916554         1.9852124695         0.0638278313        -5.7117625373
        0.2300000000      -346.8282804658         1.8818759396         1.3429439823         1.9903162244         0.1303151555        -6.0532954332
        0.2350000000      -363.5198729424         1.8641187363         1.3327346748         1.9877643470        -0.1356341414        -6.3446186793
        0.2400000000      -377.1962143571         1.8495875092         1.3352870017         1.9775568371        -0.0691468172        -6.5833158666
        0.2450000000      -387.7438649615         1.8383810304         1.3276300211         1.9775568371        -0.2686087899        -6.7674070980
        0.2500000000      -395.0753362381         1.8305876418         1.3403916554         1.9903162244         0.0638278313        -6.8953654108
        0.2550000000      -399.1298165830         1.8262752764         1.3378393285         1.9903162244        -0.0026594930        -6.9661294423
        0.2600000000      -399.8736757133         1.8254838719         1.3378393285         1.9826605920        -0.0026594930        -6.9791122332
        0.2650000000      -397.3007436169         1.8282209416         1.3378393285         1.9826605920        -0.0026594930        -6.9342060967
        0.2700000000      -391.4323617302         1.8344607439         1.3352870017         1.9826605920        -0.0691468172        -6.8317835110
        0.2750000000      -382.3172059193         1.8441471313         1.3327346748         1.9801087146        -0.1356341414        -6.6726940303
        0.2800000000      -370.0308827338         1.8571997984         1.3148683868         1.9801087146        -0.6010454110        -6.4582572378
        0.2850000000      -354.6753022802         1.8735233012         1.1770427366         1.9673493273        -4.1913609193        -6.1902518003
        0.2900000000      -336.3778329193         1.8930179280         1.1004729309         1.9469343076        -6.1859806461        -5.8709007152
        0.2950000000      -315.2902447962         1.9155912765         1.1311008532         1.9316230429        -5.3881327553        -5.5028528711
        0.3000000000      -291.5874509686         1.9411692582         1.1591764486         1.9163117781        -4.6567721888        -5.0891610769
        0.3050000000      -265.4660565730         1.9697052208         1.1693857560         1.8882411261        -4.3908228919        -4.6332567395
        0.3100000000      -237.1427280644         2.0011859592         1.1949090246         1.8831373711        -3.7259496497        -4.1389214019
        0.3150000000      -206.8523960553         2.0356335722         1.1795950634         1.8576185965        -4.1248735950        -3.6102553768
        0.3200000000      -174.8463066604         2.0731024094         1.1795950634         1.8525148416        -4.1248735950        -3.0516437362
        0.3250000000      -141.3899375117         2.1136707215         1.1872520440         1.8397554543        -3.9254116223        -2.4677199388
        0.3300000000      -106.7607957282         2.1574270525         1.1923566977         1.8193404347        -3.7924369739        -1.8633273975
        0.3350000000       -71.2461161057         2.2044518672         1.1795950634         1.8065810474        -4.1248735950        -1.2434793053
        0.3400000000       -35.1404786203         2.2547953556         1.2000136783         1.7938216601        -3.5929750012        -0.6133170527
        0.3450000000         1.2566349944         2.5112741462         1.2076706589         1.7683028855        -3.3935130285         0.0219324181
        0.3500000000        37.6433253274         2.7398661813         1.2331939274         1.7249209687        -2.7286397863         0.6569999684
        0.3550000000        73.7177794249         2.7835416749         1.2459555617         1.7325766011        -2.3962031651         1.2866179682
        0.3600000000       109.1807742069         2.8253660807         1.2510602154         1.7325766011        -2.2632285167         1.9055639898
        0.3650000000       143.7381584024         2.8651193896         1.2459555617         1.7223690912        -2.3962031651         2.5087041249
        0.3700000000       177.1032924156         2.9026263115         1.2536125423         1.7172653363        -2.1967411924         3.0910355688
        0.3750000000       208.9994258864         2.9377467442         1.2791358108         1.7198172138        -1.5318679502         3.6477281165
        0.3800000000       239.1619932230         2.9703654124         1.3046590794         1.7147134588        -0.8669947079         4.1741642274
        0.3850000000       267.3408080671         3.0003818995         1.3301823480         1.7121615814        -0.2021214656         4.6659773257
        0.3900000000       293.3021384890         3.0277021806         1.3352870017         1.6994021941        -0.0691468172         5.1190880198
        0.3950000000       316.8306457000         3.0522325293         1.3301823480         1.6994021941        -0.2021214656         5.5297379387
        0.4000000000       337.7311702008         3.0738763274         1.3352870017         1.7045059490        -0.0691468172         5.8945209066
        0.4050000000       355.8303505513         3.0925339144         1.3454963091         1.7096097039         0.1968024797         6.2104111956
        0.4100000000       370.9780613339         3.1081052121         1.3633625971         1.7045059490         0.6622137493         6.4747886229
        0.4150000000       383.0486583830         3.1204945096         1.3403916554         1.7045059490         0.0638278313         6.6854602841
        0.4200000000       391.9420209537         3.1296165289         1.3454963091         1.7121615814         0.1968024797         6.8406787426
        0.4250000000       397.5843821821         3.1354027593         1.3352870017         1.7070578265        -0.0691468172         6.9391565236
        0.4300000000       399.9289409523         3.1378070473         1.3352870017         1.7070578265        -0.0691468172         6.9800767936
        0.4350000000       398.9562500929         3.1368095736         1.3403916554         1.7045059490         0.0638278313         6.9631001355
        0.4400000000       394.6743776831         3.1324186071         1.3327346748         1.7070578265        -0.1356341414         6.8883673638
        0.4450000000       387.1188401315         3.1246697702         1.3378393285         1.7096097039        -0.0026594930         6.7564983568
        0.4500000000       376.3523075817         3.1136229254         1.3480486360         1.7121615814         0.2632898039         6.5685869148
        0.4550000000       362.4640840885         3.0993571602         1.3378393285         1.6994021941        -0.0026594930         6.3261916876
        0.4600000000       345.5693668771         3.0819646431         1.3710195777         1.7096097039         0.8616757220         6.0313232460
        0.4650000000       325.8082908282         3.0615443207         1.4220661148         1.7121615814         2.1914222065         5.6864274052
        0.4700000000       303.3447661155         3.0381964855         1.5062929011         1.7223690912         4.3855039060         5.2943649374
        0.4750000000       278.3651186369         3.0120191651         1.5420254771         1.7478878658         5.3163264452         4.8583878429
        0.4800000000       251.0765445163         2.9831070708         1.5113975548         1.7606472531         4.5184785544         4.3821123763
        0.4850000000       221.7053914947         2.9515535229         1.5113975548         1.7912697826         4.5184785544         3.8694890510
        0.4900000000       190.4952814672         2.9174553856         1.5011882474         1.7989254150         4.2525292575         3.3247698711
        0.4950000000       157.7050897372         2.8809206395         1.4909789399         1.8167885572         3.9865799606         2.7524730631
        0.5000000000       123.6067977500         2.8420778522         1.4986359205         1.8320998220         4.1860419333         2.1573455986
        0.5050000000        88.4832371161         2.8010865222         1.4986359205         1.8474110867         4.1860419333         1.5443238205
        0.5100000000        52.6257436369         2.7581471017         1.4960835936         1.8678261064         4.1195546091         0.9184924978
        0.5150000000        16.3317407914         2.6776028216         1.4858742862         1.8754817388         3.8536053122         0.2850426494
        0.5200000000       -20.0977272719         2.2765992634         1.4756649788         1.8907930035         3.5876560153        -0.3507715131
        0.5250000000       -56.3604927750         2.2248799002         1.4705603251         1.8958967584         3.4546813668        -0.9836761670
        0.5300000000       -92.1557706706         2.1764853644         1.4501417102         1.9137599006         2.9227827730        -1.6084216229
        0.5350000000      -127.1866535330         2.1313851234         1.4373800759         1.9316230429         2.5903461519        -2.2198258687
        0.5400000000      -161.1625742855         2.0895083720         1.4195137880         1.9316230429         2.1249348823        -2.8128175523
        0.5450000000      -193.8017163378         2.0507674363         1.4041998268         1.9469343076         1.7260109369        -3.3824780461
        0.5500000000      -224.8333511409         2.0150778675         1.3761242314         1.9443824302         0.9946503704        -3.9240822457
        0.5550000000      -254.0000837715         1.9823741067         1.3480486360         1.9418305527         0.2632898039        -4.4331377622
        0.5600000000      -281.0599879195         1.9526200412         1.3378393285         1.9494861851        -0.0026594930        -4.9054221848
        0.5650000000      -305.7886125692         1.9258142259         1.3276300211         1.9469343076        -0.2686087899        -5.3370181044
        0.5700000000      -327.9808437302         1.9019899851         1.3327346748         1.9469343076        -0.1356341414        -5.7243456066
        0.5750000000      -347.4526057753         1.8812110094         1.3352870017         1.9545899400        -0.0691468172        -6.0641919654
        0.5800000000      -364.0423882740         1.8635633793         1.3301823480         1.9469343076        -0.2021214656        -6.3537382922
        0.5850000000      -377.6125856564         1.8491451833         1.3301823480         1.9443824302        -0.2021214656        -6.5905829167
        0.5900000000      -388.0506385960         1.8380550179         1.3352870017         1.9443824302        -0.0691468172        -6.7727613080
        0.5950000000      -395.2699676441         1.8303806762         1.3352870017         1.9443824302        -0.0691468172        -6.8987623696
        0.6000000000      -399.2106913713         1.8261892360         1.3352870017         1.9443824302        -0.0691468172        -6.9675409736
        0.6050000000      -399.8401230601         1.8255195708         1.3327346748         1.9418305527        -0.1356341414        -6.9785266290
        0.6100000000      -397.1530418279         1.8283780397         1.3276300211         1.9392786752        -0.2686087899        -6.9316282142
        0.6150000000      -391.1717359323         1.8347377843         1.3352870017         1.9443824302        -0.0691468172        -6.8272347328
        0.6200000000      -381.9458178987         1.8445417022         1.3225253674         1.9418305527        -0.4015834383        -6.6662120866
        0.6250000000      -369.5518130045         1.8577088023         1.2944497720         1.9392786752        -1.1329440048        -6.4498958936
        0.6300000000      -354.0925245330         1.8741433048         1.1617287755         1.9341749203        -4.5902848646        -6.1800804098
        0.6350000000      -335.6961810610         1.8937455571         1.1311008532         1.9137599006        -5.3881327553        -5.8590036459
        0.6400000000      -314.5153728546         1.9164236123         1.1438624875         1.8882411261        -5.0556961342        -5.4893288045
        0.6450000000      -290.7257861948         1.9421041907         1.1566241217         1.8652742289        -4.7232595131        -5.0741221895
        0.6500000000      -264.5247461295         1.9707417144         1.1795950634         1.8550667191        -4.1248735950        -4.6168277730
        0.6550000000      -236.1295797425         2.0023241913         1.2000136783         1.8448592093        -3.5929750012        -4.1212386279
        0.6600000000      -205.7758135126         2.0368749128         1.1846997172         1.8295479445        -3.9918989466        -3.5914654668
        0.6650000000      -173.7152197159         2.0744492224         1.1693857560         1.8091329248        -4.3908228919        -3.0319025449
