% f=2.60Hz  n_cycles=5  N_total=384  dt=0.005000
% Amp=1.5000V  K_lin=5.741200
Time[s]              Vcmd[V]              Vc[V]                Vg[V]                Pot[V]               Omega[rad/s]         Omega_target[rad/s] 
        0.0000000000         0.0000000000         2.5000000000         1.3352870017         2.4777248191        -0.0452113805         0.0000000000
        0.0050000000         0.1223859174         2.7430298087         1.3352870017         2.4802766965        -0.0452113805         0.7026420287
        0.0100000000         0.2439557478         2.7837894026         1.3429439823         2.4853804515         0.1542505922         1.4005987392
        0.0150000000         0.3638988462         2.8237306306         1.3301823480         2.4751729416        -0.1781860289         2.0892160558
        0.0200000000         0.4814154147         2.8626061080         1.3378393285         2.4853804515         0.0212759438         2.7639021789
        0.0250000000         0.5957218360         2.9001796335         1.3378393285         2.4802766965         0.0212759438         3.4201582046
        0.0300000000         0.7060558982         2.9362270752         1.3403916554         2.4853804515         0.0877632680         4.0536081230
        0.0350000000         0.8116818782         2.9705371296         1.3403916554         2.4853804515         0.0877632680         4.6600279991
        0.0400000000         0.9118954465         3.0029119670         1.3403916554         2.4751729416         0.0877632680         5.2353741377
        0.0450000000         1.0060283648         3.0331677770         1.3429439823         2.4802766965         0.1542505922         5.7758100480
        0.0500000000         1.0934529411         3.0611352256         1.3301823480         2.4726210642        -0.1781860289         6.2777320256
        0.0550000000         1.1735862159         3.0866598373         1.3429439823         2.4853804515         0.1542505922         6.7377931825
        0.0600000000         1.2458938488         3.1096023109         1.3429439823         2.4777248191         0.1542505922         7.1529257647
        0.0650000000         1.3098936822         3.1298387787         1.3378393285         2.4802766965         0.0212759438         7.5203616083
        0.0700000000         1.3651589560         3.1472610182         1.3378393285         2.4853804515         0.0212759438         7.8376505983
        0.0750000000         1.4113211534         3.1617766220         1.3403916554         2.4879323289         0.0877632680         8.1026770061
        0.0800000000         1.4480724582         3.1733091322         1.3378393285         2.4726210642         0.0212759438         8.3136735973
        0.0850000000         1.4751678075         3.1817981455         1.3506009628         2.4879323289         0.3537125649         8.4692334164
        0.0900000000         1.4924265255         3.1871993906         1.3531532897         2.4879323289         0.4201998891         8.5683191680
        0.0950000000         1.4997335286         3.1894847834         1.3480486360         2.4802766965         0.2872252407         8.6102701342
        0.1000000000         1.4970400926         3.1886424603         1.3454963091         2.4828285740         0.2207379164         8.5948065799
        0.1050000000         1.4843641779         3.1846767925         1.3403916554         2.4828285740         0.0877632680         8.5220316182
        0.1100000000         1.4617903092         3.1776083807         1.3454963091         2.4879323289         0.2207379164         8.3924305231
        0.1150000000         1.4294690123         3.1674740307         1.3863335388         2.4955879613         1.2845351041         8.2068674933
        0.1200000000         1.3876158103         3.1543267085         1.5190545354         2.5057954711         4.7418759638         7.9665798898
        0.1250000000         1.3365097863         3.1382354734         1.5905196873         2.5262104908         6.6035210422         7.6731699850
        0.1300000000         1.2764917227         3.1192853862         1.5573394382         2.5415217556         5.7391858272         7.3285942783
        0.1350000000         1.2079618286         3.0975773893         1.5496824576         2.5797999174         5.5397238546         6.9351504502
        0.1400000000         1.1313770711         3.0732281528         1.5267115159         2.5874555498         4.9413379365         6.4954620406
        0.1450000000         1.0472481285         3.0463698841         1.5216068622         2.6155262019         4.8083632881         6.0124609553
        0.1500000000         0.9561359846         3.0171500909         1.4986359205         2.6206299568         4.2099773700         5.4893679149
        0.1550000000         0.8586481884         2.9857312924         1.4935312668         2.6487006088         4.0770027216         4.9296709792
        0.1600000000         0.7554348025         2.9522906697         1.5165022085         2.6563562412         4.6753886396         4.3371022878
        0.1650000000         0.6471840685         2.9170196443         1.5292638428         2.6793231383         5.0078252608         3.7156131742
        0.1700000000         0.5346178181         2.8801233748         1.5216068622         2.6997381580         4.8083632881         3.0693478171
        0.1750000000         0.4184866591         2.8418201593         1.5062929011         2.7124975453         4.4094393427         2.4026156070
        0.1800000000         0.2995649708         2.8023407309         1.5011882474         2.7354644424         4.2764646943         1.7198624102
        0.1850000000         0.1786457401         2.7619274314         1.5113975548         2.7482238297         4.5424139912         1.0256409233
        0.1900000000         0.0565352740         2.7208332509         1.5037405742         2.7762944818         4.3429520185         0.3245803151
        0.1950000000        -0.0659521775         2.2518097357         1.5037405742         2.7916057465         4.3429520185        -0.3786446413
        0.2000000000        -0.1879998503         2.2163803601         1.4884266131         2.8018132564         3.9440280731        -1.0793447408
        0.2050000000        -0.3087939132         2.1811054817         1.4577986908         2.8171245211         3.1461801824        -1.7728476142
        0.2100000000        -0.4275288937         2.1462252157         1.4373800759         2.8298839084         2.6142815886        -2.4545288845
        0.2150000000        -0.5434130501         2.1119812940         1.4093044805         2.8273320310         1.8829210221        -3.1198430030
        0.2200000000        -0.6556736500         2.0786153253         1.4016475000         2.8349876633         1.6834590494        -3.7643535592
        0.2250000000        -0.7635621236         2.0463669296         1.3812288851         2.8528508056         1.1515604556        -4.3837628642
        0.2300000000        -0.8663590551         2.0154717596         1.3659149240         2.8579545605         0.7526365102        -4.9739406073
        0.2350000000        -0.9633789798         1.9861594269         1.3403916554         2.8554026830         0.0877632680        -5.5309513986
        0.2400000000        -1.0539749547         1.9586513531         1.3225253674         2.8528508056        -0.3776480016        -6.0510810099
        0.2450000000        -1.1375428729         1.9331585782         1.3378393285         2.8477470506         0.0212759438        -6.5308611421
        0.2500000000        -1.2135254916         1.9098795553         1.3352870017         2.8502989281        -0.0452113805        -6.9670925522
        0.2550000000        -1.2814161475         1.8889979744         1.3276300211         2.8502989281        -0.2446733532        -7.3568663863
        0.2600000000        -1.3407621362         1.8706806558         1.3378393285         2.8502989281         0.0212759438        -7.6975835765
        0.2650000000        -1.3911677300         1.8550755578         1.3352870017         2.8554026830        -0.0452113805        -7.9869721715
        0.2700000000        -1.4322968171         1.8423099480         1.3378393285         2.8528508056         0.0212759438        -8.2231024864
        0.2750000000        -1.4638751429         1.8324887804         1.3301823480         2.8502989281        -0.1781860289        -8.4043999705
        0.2800000000        -1.4856921385         1.8256933241         1.3327346748         2.8400914183        -0.1116987047        -8.5296557058
        0.2850000000        -1.4976023252         1.8219800790         1.3250776943         2.8502989281        -0.3111606774        -8.5980344692
        0.2900000000        -1.4995262839         1.8213800120         1.3378393285         2.8502989281         0.0212759438        -8.6090803013
        0.2950000000        -1.4914511856         1.8238981335         1.3429439823         2.8554026830         0.1542505922        -8.5627195467
        0.3000000000        -1.4734308761         1.8295134291         1.3378393285         2.8477470506         0.0212759438        -8.4592613458
        0.3050000000        -1.4455855174         1.8381791470         1.3352870017         2.8426432957        -0.0452113805        -8.2993955727
        0.3100000000        -1.4081007865         1.8498234333         1.2382985811         2.8502989281        -2.5717297011        -8.0841882353
        0.3150000000        -1.3612266368         1.8643502963         1.0851589698         2.8222282761        -6.5609691547        -7.8150743673
        0.3200000000        -1.3052756320         1.8816408713         1.1132345652         2.7890538691        -5.8296085882        -7.4938484585
        0.3250000000        -1.2406208614         1.9015549517         1.1336531800         2.7788463592        -5.2977099944        -7.1226524895
        0.3300000000        -1.1676934524         1.9239327440         1.1642811023         2.7660869720        -4.4998621037        -6.7039616486
        0.3350000000        -1.0869796953         1.9485968026         1.1795950634         2.7431200748        -4.1009381583        -6.2405678265
        0.3400000000        -0.9990178012         1.9753540975         1.1974613514         2.7303606875        -3.6355268887        -5.7355610000
        0.3450000000        -0.9043943125         2.0039981699         1.1923566977         2.7099456679        -3.7685015372        -5.1923086271
        0.3500000000        -0.8037401925         2.0343113299         1.1923566977         2.7048419129        -3.7685015372        -4.6144331930
        0.3550000000        -0.6977266171         2.0660668587         1.1642811023         2.6767712609        -4.4998621037        -4.0057880542
        0.3600000000        -0.5870605003         2.0990311771         1.1719380829         2.6665637511        -4.3004001310        -3.3704317441
        0.3650000000        -0.4724797795         2.1329659511         1.1642811023         2.6487006088        -4.4998621037        -2.7126009100
        0.3700000000        -0.3547484955         2.1676301097         1.1821473903         2.6308374666        -4.0344508341        -2.0366820626
        0.3750000000        -0.2346516976         2.2027817552         1.1872520440         2.6231818342        -3.9014761856        -1.3471823260
        0.3800000000        -0.1129902083         2.2381799532         1.1668334292         2.5951111822        -4.4333747794        -0.6486993838
        0.3850000000         0.0094247159         2.5000000000         1.1898043709         2.5874555498        -3.8349888614         0.0541091792
        0.3900000000         0.1317767948         2.7461884135         1.1923566977         2.5721442851        -3.7685015372         0.7565569345
        0.3950000000         0.2532501671         2.7868940771         1.2000136783         2.5517292654        -3.5690395645         1.4539598592
        0.4000000000         0.3730348307         2.8267619705         1.2255369469         2.5440736330        -2.9041663222         2.1416675703
        0.4050000000         0.4903320445         2.8655455349         1.2408509080         2.5364180006        -2.5052423769         2.8150943338
        0.4100000000         0.6043596536         2.9030094675         1.2663741766         2.5338661232        -1.8403691346         3.4697496431
        0.4150000000         0.7143573055         2.9389305979         1.2689265034         2.5211067359        -1.7738818104         4.1012681623
        0.4200000000         0.8195915201         2.9730986374         1.2816881377         2.5134511035        -1.4414451892         4.7054388352
        0.4250000000         0.9193605805         3.0053168166         1.2918974451         2.5057954711        -1.1754958923         5.2782329646
        0.4300000000         1.0129992122         3.0354024234         1.3097637331         2.5057954711        -0.7100846227         5.8158310770
        0.4350000000         1.0998830193         3.0631872542         1.3301823480         2.5108992261        -0.1781860289         6.3146483906
        0.4400000000         1.1794326482         3.0885179903         1.3378393285         2.4955879613         0.0212759438         6.7713587199
        0.4450000000         1.2511176504         3.1112565091         1.3429439823         2.5057954711         0.1542505922         7.1829166546
        0.4500000000         1.3144600201         3.1312801394         1.3429439823         2.5083473486         0.1542505922         7.5465778672
        0.4550000000         1.3690373811         3.1484818698         1.3454963091         2.5057954711         0.2207379164         7.8599174124
        0.4600000000         1.4144858038         3.1627705152         1.3454963091         2.5057954711         0.2207379164         8.1208458970
        0.4650000000         1.4505022316         3.1740708496         1.3378393285         2.5057954711         0.0212759438         8.3276234123
        0.4700000000         1.4768465018         3.1823237080         1.3480486360         2.5160029810         0.2872252407         8.4788711361
        0.4750000000         1.4933429469         3.1874860627         1.3403916554         2.5057954711         0.0877632680         8.5735805268
        0.4800000000         1.4998815663         3.1895310762         1.3429439823         2.5108992261         0.1542505922         8.6111200485
        0.4850000000         1.4964187595         3.1884481338         1.3403916554         2.5108992261         0.0877632680         8.5912393823
        0.4900000000         1.4829776171         3.1842428552         1.3403916554         2.5108992261         0.0877632680         8.5140710953
        0.4950000000         1.4596477665         3.1769370891         1.3480486360         2.5134511035         0.2872252407         8.3801297569
        0.5000000000         1.4265847744         3.1665688859         1.3939905194         2.5083473486         1.4839970767         8.1903085070
        0.5050000000         1.3840091098         3.1531924525         1.5369208233         2.5287623683         5.2072872334         7.9458731012
        0.5100000000         1.3322046732         3.1368780826         1.5701010725         2.5542811429         6.0716224484         7.6484534699
        0.5150000000         1.2715169041         3.1177120633         1.5547871113         2.5823517949         5.6726985030         7.3000328500
        0.5200000000         1.2023504773         3.0957965526         1.5343684965         2.6027668146         5.1407999092         6.9029345603
        0.5250000000         1.1251666044         3.0712494234         1.5190545354         2.6129743244         4.7418759638         6.4598065094
        0.5300000000         1.0404799587         3.0442040688         1.4960835936         2.6257337117         4.1434900458         5.9736035390
        0.5350000000         0.9488552429         3.0148091622         1.4960835936         2.6512524863         4.1434900458         5.4475677204
        0.5400000000         0.8509034237         2.9832283640         1.5037405742         2.6640118736         4.3429520185         4.8852067361
        0.5450000000         0.7472776580         2.9496399667         1.5165022085         2.6818750158         4.6753886396         4.2902704902
        0.5500000000         0.6386689373         2.9142364674         1.5165022085         2.7048419129         4.6753886396         3.6667261031
        0.5550000000         0.5258014803         2.8772240580         1.4756649788         2.7124975453         3.6115914520         3.0187314586
        0.5600000000         0.4094279033         2.8388220195         1.4960835936         2.7354644424         4.1434900458         2.3506074783
        0.5650000000         0.2903242021         2.7992620090         1.5190545354         2.7609832170         4.7418759638         1.6668093090
        0.5700000000         0.1692845773         2.7587872235         1.5062929011         2.7762944818         4.4094393427         0.9718966153
        0.5750000000         0.0471161386         2.5000000000         1.4909789399         2.7788463592         4.0105153974         0.2705031750
        0.5800000000        -0.0753664773         2.2490843304         1.4909789399         2.8069170113         4.0105153974        -0.4326940193
        0.5850000000        -0.1973465386         2.2136583784         1.4705603251         2.8094688888         3.4786168035        -1.1330059476
        0.5900000000        -0.3180106649         2.1784052993         1.4603510177         2.8349876633         3.2126675066        -1.8257628292
        0.5950000000        -0.4365542502         2.1435653912         1.4348277491         2.8375395408         2.5477942644        -2.5063452615
        0.6000000000        -0.5521868290         2.1093804401         1.4118568074         2.8477470506         1.9494083463        -3.1702150228
        0.6050000000        -0.6641373466         2.0760919695         1.4041998268         2.8630583154         1.7499463736        -3.8129453341
        0.6100000000        -0.7716593007         2.0439393658         1.3863335388         2.8630583154         1.2845351041        -4.4302503770
        0.6150000000        -0.8740357195         2.0131578917         1.3582579434         2.8605064379         0.5531745376        -5.0180138728
        0.6200000000        -0.9705839424         1.9839766058         1.3378393285         2.8605064379         0.0212759438        -5.5723165298
        0.6250000000        -1.0606601718         1.9566162095         1.3327346748         2.8630583154        -0.1116987047        -6.0894621782
        0.6300000000        -1.1436637665         1.9312868524         1.3352870017         2.8707139478        -0.0452113805        -6.5660024163
        0.6350000000        -1.2190412466         1.9081859289         1.3429439823         2.8605064379         0.1542505922        -6.9987596053
        0.6400000000        -1.2862899843         1.8874959049         1.3429439823         2.8630583154         0.1542505922        -7.3848480578
        0.6450000000        -1.3449615552         1.8693822186         1.3301823480         2.8605064379        -0.1781860289        -7.7216932806
        0.6500000000        -1.3946647288         1.8539912994         1.3301823480         2.8605064379        -0.1781860289        -8.0070491412
        0.6550000000        -1.4350680773         1.8414487531         1.3378393285         2.8630583154         0.0212759438        -8.2390128456
        0.6600000000        -1.4659021854         1.8318577571         1.3429439823         2.8656101929         0.1542505922        -8.4160376265
        0.6650000000        -1.4869614466         1.8252977096         1.3352870017         2.8630583154        -0.0452113805        -8.5369430572
