% f=5.80Hz  n_cycles=5  N_total=172  dt=0.005000
% Amp=1.0000V  K_lin=8.382100
Time[s]              Vcmd[V]              Vc[V]                Vg[V]                Pot[V]               Omega[rad/s]         Omega_target[rad/s] 
        0.0000000000         0.0000000000         2.5000000000         1.3352870017         1.1073666236        -0.0781226060         0.0000000000
        0.0050000000         0.1812057636         2.8258966983         1.3352870017         1.1099185011        -0.0781226060         1.5188848313
        0.0100000000         0.3564118787         2.9121928453         1.3352870017         1.1099185011        -0.0781226060         2.9874800086
        0.0150000000         0.5198173426         2.9953632488         1.3454963091         1.1201260109         0.1878266909         4.3571609476
        0.0200000000         0.6660118674         3.0721950182         1.3454963091         1.1175741334         0.1878266909         5.5825780740
        0.0250000000         0.7901550124         3.1394068211         1.3378393285         1.0997109912        -0.0116352817         6.6231583292
        0.0300000000         0.8881364488         3.1938419350         1.3403916554         1.1124703785         0.0548520425         7.4444485276
        0.0350000000         0.9567120516         3.2327201657         1.3761242314         1.1175741334         0.9856745817         8.0192560874
        0.0400000000         0.9936113105         3.2539192452         1.4884266131         1.1048147461         3.9111168476         8.3285493659
        0.0450000000         0.9976125064         3.2562300602         1.4450370565         1.1048147461         2.7808323358         8.3620877896
        0.0500000000         0.9685831611         3.2395184981         1.4654556714         0.0100593162         3.3127309296         8.1187609149
        0.0550000000         0.9074844245         3.2047441529         1.5088452279         0.0024036839         4.4430154414         7.6066251949
        0.0600000000         0.8163392507         3.1538298080         1.4782173056         0.0024036839         3.6451675507         6.8426372334
        0.0650000000         0.6981654190         3.0894227140         1.5011882474        -0.0001481936         4.2435534688         5.8520923585
        0.0700000000         0.5568756165         3.0146135907         1.5113975548         0.0024036839         4.5095027657         4.6677871050
        0.0750000000         0.3971478906         2.9326738332         1.4858742862        -0.0001481936         3.8446295234         3.3289333341
        0.0800000000         0.2242707609         2.8468470166         1.5165022085         0.0075074388         4.6424774141         1.8798599454
        0.0850000000         0.0439681183         2.5000000000         1.5011882474         0.0049555613         4.2435534688         0.3685451646
        0.0900000000        -0.1377902907         2.1740686427         1.4884266131         0.0177149486         3.9111168476        -1.1549719955
        0.0950000000        -0.3149865197         2.0838378118         1.4858742862         0.0355780908         3.8446295234        -2.6402485064
        0.1000000000        -0.4817536741         1.9961448232         1.4373800759         0.0406818457         2.5813703631        -4.0381074717
        0.1050000000        -0.6325701619         1.9142925872         1.3990951731         0.0457856007         1.5840604997        -5.3022663542
        0.1100000000        -0.7624425110         1.8416830163         1.3837812120         0.0559931105         1.1851365543        -6.3908693715
        0.1150000000        -0.8670707012         1.7816327013         1.3582579434         0.0610968654         0.5202633121        -7.2678733242
        0.1200000000        -0.9429905359         1.7371271983         1.3225253674         0.0636487429        -0.4105592271        -7.9042409709
        0.1250000000        -0.9876883406         1.7105378395         1.2153276394         0.0483374781        -3.2030268446        -8.2789024397
        0.1300000000        -0.9996841893         1.7033514846         1.2561648691         0.0457856007        -2.1392296570        -8.3794528430
        0.1350000000        -0.9785809043         1.7159794660         1.2255369469         0.0304743359        -2.9370775477        -8.2025629981
        0.1400000000        -0.9250772068         1.7477017037         1.1795950634         0.0202668261        -4.1338493838        -7.7540896554
        0.1450000000        -0.8409445823         1.7967636684         1.1898043709         0.0024036839        -3.8679000869        -7.0488815833
        0.1500000000        -0.7289686274         1.8605958864         1.1898043709        -0.0052519485        -3.8679000869        -6.1102879319
        0.1550000000        -0.5928568202         1.9360940775         1.1668334292        -0.0001481936        -4.4662860049        -4.9693851523
        0.1600000000        -0.4371157667         2.0198959631         1.2000136783         0.0075074388        -3.6019507900        -3.6639480676
        0.1650000000        -0.2669019893         2.1086113160         1.1719380829        -0.0027000711        -4.3333113565        -2.2371991647
        0.1700000000        -0.0878511966         2.1989883869         1.1923566977         0.0024036839        -3.8014127627        -0.7363775146
        0.1750000000         0.0941083133         2.7840207189         1.2025660052         0.0024036839        -3.5354634658         0.7888252931
        0.1800000000         0.2729519355         2.8707310989         1.2000136783        -0.0001481936        -3.6019507900         2.2879104187
        0.1850000000         0.4427582310         2.9558017433         1.2638218497        -0.0052519485        -1.9397676843         3.7112437684
        0.1900000000         0.5979049831         3.0361027526         1.2689265034         1.1124703785        -1.8067930359         5.0116993585
        0.1950000000         0.7332553462         3.1083657754         1.2944497720         1.1022628687        -1.1419197936         6.1462196376
        0.2000000000         0.8443279255         3.1693457491         1.3301823480         1.1073666236        -0.2110972544         7.0772411044
        0.2050000000         0.9274451533         3.2160463704         1.3582579434         1.1201260109         0.5202633121         7.7739380198
        0.2100000000         0.9798550524         3.2459927148         1.3888858657         1.1099185011         1.3181112028         8.2132430346
        0.2150000000         0.9998223524         3.2575073392         1.4526940371         0.0049555613         2.9802943085         8.3806109399
        0.2200000000         0.9866859442         3.2499252589         1.4297230954        -0.0001481936         2.3819083904         8.2705002529
        0.2250000000         0.9408807690         3.2236856276         1.4475893834        -0.0052519485         2.8473196600         7.8865566935
        0.2300000000         0.8639234172         3.1802707757         1.4884266131         0.0024036839         3.9111168476         7.2414924753
        0.2350000000         0.7583619153         3.1220122995         1.4705603251         0.0024036839         3.4457055780         6.3566654101
        0.2400000000         0.6276913613         3.0518219394         1.5190545354        -0.0001481936         4.7089647384         5.2613717595
        0.2450000000         0.4762382037         2.9729137587         1.4833219594         0.0049555613         3.7781421992         3.9918762470
        0.2500000000         0.3090169944         2.8885667094         1.4884266131         0.0024036839         3.9111168476         2.5902113486
        0.2550000000         0.1315643591         2.8019494964         1.4935312668        -0.0001481936         4.0440914961         1.1027856143
        0.2600000000        -0.0502443182         2.5000000000         1.4884266131         0.0177149486         3.9111168476        -0.4211528994
        0.2650000000        -0.2303894267         2.1272770673         1.4782173056         0.0228187035         3.6451675507        -1.9311472133
        0.2700000000        -0.4029064357         2.0379579770         1.4629033445         0.0381299683         3.2462436054        -3.3772020348
        0.2750000000        -0.5620833779         1.9528638931         1.4169614611         0.0483374781         2.0494717693        -4.7114390815
        0.2800000000        -0.7026499698         1.8753679100         1.3914381925         0.0585449879         1.3845985270        -5.8896823119
        0.2850000000        -0.8199521093         1.8088549513         1.3531532897         0.0559931105         0.3872886636        -6.8729205756
        0.2900000000        -0.9101059707         1.7565043079         1.3327346748         0.0610968654        -0.1446099302        -7.6285992569
        0.2950000000        -0.9701265965         1.7210198363         1.3429439823         0.0585449879         0.1213393667        -8.1316981444
        0.3000000000        -0.9980267284         1.7043457070         1.2536125423         0.0457856007        -2.2057169812        -8.3655598404
        0.3050000000        -0.9928826046         1.7074287613         1.2000136783         0.0406818457        -3.6019507900        -8.3224412798
        0.3100000000        -0.9548645447         1.7300922722         1.2434032349         0.0202668261        -2.4716662781        -8.0037701005
        0.3150000000        -0.8852313113         1.7710600390         1.1744904097         0.0100593162        -4.2668240322        -7.4200973747
        0.3200000000        -0.7862884321         1.8281231566         1.1693857560         0.0075074388        -4.3997986807        -6.5907482670
        0.3250000000        -0.6613118653         1.8983994355         1.2153276394        -0.0001481936        -3.2030268446        -5.5431821863
        0.3300000000        -0.5144395338         1.9786188479         1.1540717949        -0.0052519485        -4.7987226261        -4.3120836161
        0.3350000000        -0.3505343202         2.0653798457         1.1795950634        -0.0052519485        -4.1338493838        -2.9382137253
        0.3400000000        -0.1750230590         2.1553471046         1.2000136783        -0.0001481936        -3.6019507900        -1.4670607826
        0.3450000000         0.0062831440         2.5000000000         1.1668334292        -0.0052519485        -4.4662860049         0.0526659410
        0.3500000000         0.1873813146         2.8288908669         1.2153276394        -0.0001481936        -3.2030268446         1.5706489170
        0.3550000000         0.3622753667         2.9151308235         1.2280892737         0.0100593162        -2.8705902235         3.0366283513
        0.3600000000         0.5251746300         2.9981369654         1.2587171960         0.0100593162        -2.0727423328         4.4020662658
        0.3650000000         0.6706855765         3.0746915402         1.2867927914         1.1175741334        -1.3413817663         5.6217535711
        0.3700000000         0.7939903986         3.1415139238         1.2944497720         1.0920553588        -1.1419197936         6.6553069205
        0.3750000000         0.8910065242         3.1954558992         1.3327346748         1.1022628687        -0.1446099302         7.4685057864
        0.3800000000         0.9585217890         3.2337552419         1.3454963091         1.1073666236         0.1878266909         8.0344254877
        0.3850000000         0.9943007904         3.2543172711         1.4271707685         1.1175741334         2.3154210662         8.3343286552
        0.3900000000         0.9971589003         3.2559679685         1.4552463639        -0.0052519485         3.0467816327         8.3582856179
        0.3950000000         0.9670014878         3.2386115232         1.4348277491         0.0075074388         2.5148830389         8.1055031706
        0.4000000000         0.9048270525         3.2032436979         1.4705603251        -0.0001481936         3.4457055780         7.5843508365
        0.4050000000         0.8126941644         3.1518166704         1.4960835936         0.0024036839         4.1105788203         6.8120837557
        0.4100000000         0.6936533058         3.0869977055         1.4731126519         0.0024036839         3.5121929023         5.8142713747
        0.4150000000         0.5516458706         3.0118878852         1.4935312668        -0.0027000711         4.0440914961         4.6239508522
        0.4200000000         0.3913736668         2.9297607490         1.4935312668         0.0049555613         4.0440914961         3.2805332128
        0.4250000000         0.2181432414         2.8438559796         1.4782173056        -0.0027000711         3.6451675507         1.8284984637
        0.4300000000         0.0376901827         2.5000000000         1.5190545354         0.0126111937         4.7089647384         0.3159228802
        0.4350000000        -0.1440107826         2.1709493690         1.4782173056         0.0151630711         3.6451675507        -1.2071127804
        0.4400000000        -0.3209436098         2.0807532244         1.4654556714         0.0304743359         3.3127309296        -2.6901814318
        0.4450000000        -0.4872501257         1.9932056793         1.4220661148         0.0406818457         2.1824464177        -4.0841792788
        0.4500000000        -0.6374239897         1.9116154190         1.3914381925         0.0559931105         1.3845985270        -5.3429516245
        0.4550000000        -0.7664930068         1.8393848590         1.3480486360         0.0457856007         0.2543140152        -6.4248210324
        0.4600000000        -0.8701837547         1.7798235790         1.3327346748         0.0585449879        -0.1446099302        -7.2939672500
        0.4650000000        -0.9450630752         1.7359007657         1.3301823480         0.0508893556        -0.2110972544        -7.9216132025
        0.4700000000        -0.9886517447         1.7099614893         1.3199730405         0.0534412330        -0.4770465513        -8.2869777896
        0.4750000000        -0.9995065604         1.7034580545         1.1693857560         0.0381299683        -4.3997986807        -8.3779639396
        0.4800000000        -0.9772681236         1.7167628261         1.2536125423         0.0355780908        -2.2057169812        -8.1915591386
        0.4850000000        -0.9226727399         1.7491175989         1.2306416006         0.0228187035        -2.8041028993        -7.7339351729
        0.4900000000        -0.8375280400         1.7987355457         1.1515194680         0.0049555613        -4.8652099503        -7.0202437844
        0.4950000000        -0.7246531302         1.8630239412         1.2102229857        -0.0052519485        -3.3360014931        -6.0741150025
        0.5000000000        -0.5877852523         1.9388651776         1.1872520440         0.0024036839        -3.9343874111        -4.9268747632
        0.5050000000        -0.4314560457         2.0228925294         1.1617287755         0.0024036839        -4.5992606534        -3.6165077205
        0.5100000000        -0.2608415063         2.1117181470         1.2051183320        -0.0052519485        -3.4689761415        -2.1863995899
        0.5150000000        -0.0815906116         2.2020972610         1.1642811023        -0.0052519485        -4.5327733292        -0.6839006652
        0.5200000000         0.1003617149         2.7870057202         1.2025660052         0.0024036839        -3.5354634658         0.8412419301
        0.5250000000         0.2789911060         2.8737092414         1.2153276394        -0.0052519485        -3.2030268446         2.3385313499
        0.5300000000         0.4483832161         2.9586686627         1.2485078886         0.0024036839        -2.3386916297         3.7583929556
        0.5350000000         0.6029295417         3.0387473051         1.2689265034         1.1073666236        -1.8067930359         5.0538157114
        0.5400000000         0.7375131174         3.1106745551         1.2867927914         1.1022628687        -1.3413817663         6.1819087010
        0.5450000000         0.8476779361         3.1712098281         1.3225253674         1.0997109912        -0.4105592271         7.1053212281
        0.5500000000         0.9297764859         3.2173700860         1.3557056165         1.1124703785         0.4537759878         7.7934794824
        0.5550000000         0.9810905174         3.2467034618         1.3659149240         1.1099185011         0.7197252848         8.2235988263
        0.5600000000         0.9999210442         3.2575643996         1.4756649788         0.0100593162         3.5786802265         8.3814381846
        0.5650000000         0.9856445951         3.2493253088         1.4195137880        -0.0052519485         2.1159590935         8.2617715610
        0.5700000000         0.9387338577         3.2224632052         1.4501417102        -0.0001481936         2.9138069842         7.8685610682
        0.5750000000         0.8607420270         3.1784935552         1.4909789399         0.0024036839         3.9776041719         7.2148257445
        0.5800000000         0.7542513807         3.1197726695         1.4782173056         0.0024036839         3.6451675507         6.3222104985
        0.5850000000         0.6227877805         3.0492272144         1.4884266131         0.0024036839         3.9111168476         5.2202694548
        0.5900000000         0.4707039322         2.9700771166         1.4909789399         0.0024036839         3.9776041719         3.9454874298
        0.5950000000         0.3030352696         2.8856000658         1.4833219594        -0.0027000711         3.7781421992         2.5400719336
        0.6000000000         0.1253332336         2.7989586188         1.4986359205         0.0100593162         4.1770661445         1.0505556971
        0.6050000000        -0.0565185345         2.5000000000         1.4909789399         0.0126111937         3.9776041719        -0.4737440079
        0.6100000000        -0.2364989970         2.1241624080         1.4705603251         0.0202668261         3.4457055780        -1.9823582430
        0.6150000000        -0.4086490747         2.0349343282         1.4629033445         0.0355780908         3.2462436054        -3.4253374093
        0.6200000000        -0.5672689491         1.9500455230         1.4552463639         0.0534412330         3.0467816327        -4.7549050585
        0.6250000000        -0.7071067812         1.8728724110         1.3786765582         0.0508893556         1.0521619059        -5.9270397506
        0.6300000000        -0.8235325976         1.8067968060         1.3429439823         0.0457856007         0.1213393667        -6.9029325866
        0.6350000000        -0.9126915874         1.7549863177         1.3301823480         0.0610968654        -0.2110972544        -7.6502721548
        0.6400000000        -0.9716317329         1.7201232626         1.3403916554         0.0508893556         0.0548520425        -8.1443143485
        0.6450000000        -0.9984015501         1.7041209077         1.2382985811         0.0457856007        -2.6046409266        -8.3687016332
        0.6500000000        -0.9921147013         1.7078886519         1.2000136783         0.0279224584        -3.6019507900        -8.3160046379
        0.6550000000        -0.9529793415         1.7312105558         1.2485078886         0.0253705810        -2.3386916297        -7.9879681385
        0.6600000000        -0.8822912264         1.7727747704         1.1744904097         0.0126111937        -4.2668240322        -7.3954532891
        0.6650000000        -0.7823908106         1.8303445173         1.1693857560        -0.0001481936        -4.3997986807        -6.5580780133
