% f=1.20Hz  n_cycles=5  N_total=833  dt=0.005000
% Amp=1.0000V  K_lin=8.382100
Time[s]              Vcmd[V]              Vc[V]                Vg[V]                Pot[V]               Omega[rad/s]         Omega_target[rad/s] 
        0.0000000000         0.0000000000         2.5000000000         1.3352870017         1.4263513060        -0.0525249861         0.0000000000
        0.0050000000         0.0376901827         2.5000000000         1.3403916554         1.4314550609         0.0804496623         0.3159228802
        0.0100000000         0.0753268055         2.7750752606         1.3352870017         1.4237994285        -0.0525249861         0.6313968166
        0.0150000000         0.1128563849         2.7929798184         1.3352870017         1.4263513060        -0.0525249861         0.9459735036
        0.0200000000         0.1502255891         2.8109266561         1.3276300211         1.4212475511        -0.2519869588         1.2592059106
        0.0250000000         0.1873813146         2.8288908669         1.3454963091         1.4314550609         0.2134243108         1.5706489170
        0.0300000000         0.2242707609         2.8468470166         1.3352870017         1.4237994285        -0.0525249861         1.8798599454
        0.0350000000         0.2608415063         2.8647691618         1.3352870017         1.4263513060        -0.0525249861         2.1863995899
        0.0400000000         0.2970415816         2.8826308716         1.3403916554         1.4237994285         0.0804496623         2.4898322409
        0.0450000000         0.3328195445         2.9004052525         1.3378393285         1.4263513060         0.0139623381         2.7897267041
        0.0500000000         0.3681245527         2.9180649764         1.3939905194         1.4340069384         1.4766834711         3.0856568131
        0.0550000000         0.4029064357         2.9355823132         1.4169614611         1.4340069384         2.0750693891         3.3772020348
        0.0600000000         0.4371157667         2.9529291670         1.3812288851         1.4391106933         1.1442468499         3.6639480676
        0.0650000000         0.4707039322         2.9700771166         1.4067521537         1.4493182031         1.8091200922         3.9454874298
        0.0700000000         0.5036232016         2.9869974614         1.4246184417         1.4467663256         2.2745313618         4.2214200384
        0.0750000000         0.5358267950         3.0036612711         1.3914381925         1.4595257129         1.4101961468         4.4913537782
        0.0800000000         0.5672689491         3.0200394410         1.4271707685         1.4620775904         2.3410186860         4.7549050585
        0.0850000000         0.5979049831         3.0361027526         1.4271707685         1.4671813453         2.3410186860         5.0116993585
        0.0900000000         0.6276913613         3.0518219394         1.4220661148         1.4850444875         2.2080440376         5.2613717595
        0.0950000000         0.6565857558         3.0671677578         1.4475893834         1.4927001199         2.8729172798         5.5035674633
        0.1000000000         0.6845471059         3.0821110636         1.4629033445         1.5105632621         3.2718412252         5.7379422966
        0.1050000000         0.7115356772         3.0966228941         1.4552463639         1.5207707720         3.0723792525         5.9641631999
        0.1100000000         0.7375131174         3.1106745551         1.4654556714         1.5335301593         3.3383285494         6.1819087010
        0.1150000000         0.7624425110         3.1242377125         1.4603510177         1.5462895465         3.2053539010         6.3908693715
        0.1200000000         0.7862884321         3.1372844894         1.4731126519         1.5513933015         3.5377905221         6.5907482670
        0.1250000000         0.8090169944         3.1497875664         1.4782173056         1.5667045662         3.6707651706         6.7812613486
        0.1300000000         0.8305958992         3.1617202864         1.4680079982         1.5718083211         3.4048158736         6.9621378866
        0.1350000000         0.8509944818         3.1730567618         1.4833219594         1.5871195859         3.8037398190         7.1331208459
        0.1400000000         0.8701837547         3.1837719841         1.4756649788         1.6075346056         3.6042778463         7.2939672500
        0.1450000000         0.8881364488         3.1938419350         1.4884266131         1.6279496252         3.9367144675         7.4444485276
        0.1500000000         0.9048270525         3.2032436979         1.5088452279         1.6330533802         4.4686130613         7.5843508365
        0.1550000000         0.9202318474         3.2119555687         1.4935312668         1.6483646449         4.0696891159         7.7134753678
        0.1600000000         0.9343289425         3.2199571647         1.4986359205         1.6662277871         4.2026637644         7.8316386286
        0.1650000000         0.9470983050         3.2272295309         1.5190545354         1.6840909293         4.7345623582         7.9386727023
        0.1700000000         0.9585217890         3.2337552419         1.5088452279         1.6994021941         4.4686130613         8.0344254877
        0.1750000000         0.9685831611         3.2395184981         1.5216068622         1.7249209687         4.8010496824         8.1187609149
        0.1800000000         0.9772681236         3.2445052162         1.5267115159         1.7402322334         4.9340243309         8.1915591386
        0.1850000000         0.9845643345         3.2487031103         1.5241591891         1.7606472531         4.8675370066         8.2527167085
        0.1900000000         0.9904614257         3.2521017657         1.5318161696         1.7785103953         5.0669989793         8.3021467163
        0.1950000000         0.9949510170         3.2546927016         1.5496824576         1.8040291699         5.5324102489         8.3397789194
        0.2000000000         0.9980267284         3.2564694227         1.5318161696         1.8193404347         5.0669989793         8.3655598404
        0.2050000000         0.9996841893         3.2574274603         1.5496824576         1.8499629642         5.5324102489         8.3794528430
        0.2100000000         0.9999210442         3.2575643996         1.5522347845         1.8601704740         5.5988975731         8.3814381846
        0.2150000000         0.9987369566         3.2568798951         1.5522347845         1.8882411261         5.5988975731         8.3715130440
        0.2200000000         0.9961336091         3.2553756729         1.5522347845         1.9010005134         5.5988975731         8.3496915252
        0.2250000000         0.9921147013         3.2530555197         1.5573394382         1.9163117781         5.7318722216         8.3160046379
        0.2300000000         0.9866859442         3.2499252589         1.5496824576         1.9418305527         5.5324102489         8.2705002529
        0.2350000000         0.9798550524         3.2459927148         1.5496824576         1.9596936949         5.5324102489         8.2132430346
        0.2400000000         0.9716317329         3.2412676639         1.5598917651         1.9826605920         5.7983595458         8.1443143485
        0.2450000000         0.9620276716         3.2357617761         1.5496824576         2.0081793666         5.5324102489         8.0638121460
        0.2500000000         0.9510565163         3.2294885441         1.5675487456         2.0285943863         5.9978215185         7.9718508252
        0.2550000000         0.9387338577         3.2224632052         1.5471301308         2.0515612834         5.4659229247         7.8685610682
        0.2600000000         0.9250772068         3.2147026532         1.5624440919         2.0770800580         5.8648468700         7.7540896554
        0.2650000000         0.9101059707         3.2062253443         1.5649964188         2.1025988326         5.9313341943         7.6285992569
        0.2700000000         0.8938414242         3.1970511969         1.5649964188         2.1230138523         5.9313341943         7.4922682014
        0.2750000000         0.8763066800         3.1872014866         1.5726533993         2.1510845043         6.1307961669         7.3452902228
        0.2800000000         0.8575266562         3.1766987382         1.5752057262         2.1766032789         6.1972834912         7.1878741849
        0.2850000000         0.8375280400         3.1655666151         1.5649964188         2.1995701761         5.9313341943         7.0202437844
        0.2900000000         0.8163392507         3.1538298080         1.5675487456         2.2148814408         5.9978215185         6.8426372334
        0.2950000000         0.7939903986         3.1415139238         1.5777580530         2.2378483379         6.2637708154         6.6553069205
        0.3000000000         0.7705132428         3.1286453753         1.5573394382         2.2633671125         5.7318722216         6.4585190523
        0.3050000000         0.7459411454         3.1152512727         1.5777580530         2.2914377646         6.2637708154         6.2525532751
        0.3100000000         0.7203090249         3.1013593186         1.5701010725         2.3118527843         6.0643088427         6.0377022775
        0.3150000000         0.6936533058         3.0869977055         1.5675487456         2.3373715588         5.9978215185         5.8142713747
        0.3200000000         0.6660118674         3.0721950182         1.5675487456         2.3577865785         5.9978215185         5.5825780740
        0.3250000000         0.6374239897         3.0569801396         1.5624440919         2.3756497207         5.8648468700         5.3429516245
        0.3300000000         0.6079302977         3.0413821630         1.5675487456         2.3986166179         5.9978215185         5.0957325483
        0.3350000000         0.5775727034         3.0254303074         1.5496824576         2.4190316375         5.5324102489         4.8412721574
        0.3400000000         0.5463943467         3.0091538399         1.5624440919         2.4394466572         5.8648468700         4.5799320538
        0.3450000000         0.5144395338         2.9925820028         1.5522347845         2.4649654318         5.5988975731         4.3120836161
        0.3500000000         0.4817536741         2.9757439454         1.5522347845         2.4904842064         5.5988975731         4.0381074717
        0.3550000000         0.4483832161         2.9586686627         1.5598917651         2.5057954711         5.7983595458         3.7583929556
        0.3600000000         0.4143755810         2.9413849376         1.5471301308         2.5236586133         5.4659229247         3.4733375574
        0.3650000000         0.3797790955         2.9239212898         1.5292638428         2.5415217556         5.0005116551         3.1833463566
        0.3700000000         0.3446429232         2.9063059283         1.5267115159         2.5542811429         4.9340243309         2.8888314463
        0.3750000000         0.3090169944         2.8885667094         1.5343684965         2.5772480400         5.1334863035         2.5902113486
        0.3800000000         0.2729519355         2.8707310989         1.5190545354         2.5951111822         4.7345623582         2.2879104187
        0.3850000000         0.2364989970         2.8528261387         1.5165022085         2.6129743244         4.6680750340         1.9823582430
        0.3900000000         0.1997099805         2.8348784167         1.5190545354         2.6384930990         4.7345623582         1.6739890277
        0.3950000000         0.1626371652         2.8169140413         1.5292638428         2.6589081187         5.0005116551         1.3632409824
        0.4000000000         0.1253332336         2.7989586188         1.5139498816         2.6793231383         4.6015877097         1.0505556971
        0.4050000000         0.0878511966         2.7810372335         1.5037405742         2.6920825256         4.3356384128         0.7363775146
        0.4100000000         0.0502443182         2.5000000000         1.5088452279         2.7150494228         4.4686130613         0.4211528994
        0.4150000000         0.0125660399         2.5000000000         1.5139498816         2.7303606875         4.6015877097         0.1053298029
        0.4200000000        -0.0251300954         2.5000000000         1.4884266131         2.7456719523         3.9367144675        -0.2106429730
        0.4250000000        -0.0627905195         2.2114129306         1.4782173056         2.7609832170         3.6707651706        -0.5263164137
        0.4300000000        -0.1003617149         2.1927658653         1.4629033445         2.7609832170         3.2718412252        -0.8412419301
        0.4350000000        -0.1377902907         2.1740686427         1.4373800759         2.7788463592         2.6069679829        -1.1549719955
        0.4400000000        -0.1750230590         2.1553471046         1.4195137880         2.7865019916         2.1415567133        -1.4670607826
        0.4450000000        -0.2120071099         2.1366276361         1.4016475000         2.7941576240         1.6761454438        -1.7770647961
        0.4500000000        -0.2486898872         2.1179371467         1.3659149240         2.7890538691         0.7453229046        -2.0845435032
        0.4550000000        -0.2850192625         2.0993030471         1.3429439823         2.7992613789         0.1469369865        -2.3890599599
        0.4600000000        -0.3209436098         2.0807532244         1.3225253674         2.7992613789        -0.3849616073        -2.6901814318
        0.4650000000        -0.3564118787         2.0623160124         1.3046590794         2.7967095015        -0.8503728769        -2.9874800086
        0.4700000000        -0.3913736668         2.0440201584         1.2842404646         2.7967095015        -1.3822714707        -3.2805332128
        0.4750000000        -0.4257792916         2.0258947862         1.2893451183         2.7916057465        -1.2492968222        -3.5689245998
        0.4800000000        -0.4595798606         2.0079693541         1.2816881377         2.7916057465        -1.4487587949        -3.8522443497
        0.4850000000        -0.4927273415         1.9902736088         1.2689265034         2.7813982367        -1.7811954160        -4.1300898496
        0.4900000000        -0.5251746300         1.9728375343         1.2587171960         2.7584313396        -2.0471447129        -4.4020662658
        0.4950000000        -0.5568756165         1.9556912957         1.2357462543         2.7609832170        -2.6455306310        -4.6677871050
        0.5000000000        -0.5877852523         1.9388651776         1.2408509080         2.7482238297        -2.5125559825        -4.9268747632
        0.5050000000        -0.6178596131         1.9223895179         1.2382985811         2.7456719523        -2.5790433068        -5.1789610629
        0.5100000000        -0.6470559616         1.9062946351         1.2331939274         2.7329125650        -2.7120179552        -5.4236877755
        0.5150000000        -0.6753328081         1.8906107515         1.2331939274         2.7278088101        -2.7120179552        -5.6607071310
        0.5200000000        -0.7026499698         1.8753679100         1.2178799663         2.7176013002        -3.1109419006        -5.8896823119
        0.5250000000        -0.7289686274         1.8605958864         1.2178799663         2.7048419129        -3.1109419006        -6.1102879319
        0.5300000000        -0.7542513807         1.8463240964         1.2178799663         2.6895306482        -3.1109419006        -6.3222104985
        0.5350000000        -0.7784623016         1.8325814980         1.2255369469         2.6767712609        -2.9114799279        -6.5251488580
        0.5400000000        -0.8015669849         1.8193964899         1.1974613514         2.6589081187        -3.6428404944        -6.7188146239
        0.5450000000        -0.8235325976         1.8067968060         1.1821473903         2.6410449765        -4.0417644397        -6.9029325866
        0.5500000000        -0.8443279255         1.7948094066         1.1872520440         2.6359412215        -3.9087897913        -7.0772411044
        0.5550000000        -0.8639234172         1.7834603682         1.1846997172         2.6155262019        -3.9752771155        -7.2414924753
        0.5600000000        -0.8822912264         1.7727747704         1.1744904097         2.5951111822        -4.2412264124        -7.3954532891
        0.5650000000        -0.8994052516         1.7627765835         1.1617287755         2.5772480400        -4.5736630336        -7.5389047592
        0.5700000000        -0.9152411726         1.7534885558         1.1744904097         2.5746961625        -4.2412264124        -7.6716430330
        0.5750000000        -0.9297764859         1.7449321025         1.1515194680         2.5491773879        -4.8396123305        -7.7934794824
        0.5800000000        -0.9429905359         1.7371271983         1.1566241217         2.5313142457        -4.7066376820        -7.9042409709
        0.5850000000        -0.9548645447         1.7300922722         1.1591764486         2.5185548584        -4.6401503578        -8.0037701005
        0.5900000000        -0.9653816388         1.7238441090         1.1438624875         2.4879323289        -5.0390743031        -8.0919254349
        0.5950000000        -0.9745268728         1.7183977567         1.1464148143         2.4828285740        -4.9725869789        -8.1685817004
        0.6000000000        -0.9822872507         1.7137664411         1.1362055069         2.4624135543        -5.2385362758        -8.2336299643
        0.6050000000        -0.9886517447         1.7099614893         1.1489671412         2.4394466572        -4.9060996547        -8.2869777896
        0.6100000000        -0.9936113105         1.7069922638         1.1259961995         2.4190316375        -5.5044855727        -8.3285493659
        0.6150000000        -0.9971589003         1.7048661059         1.1234438726         2.4011684953        -5.5709728970        -8.3582856179
        0.6200000000        -0.9992894726         1.7035882916         1.1285485263         2.3730978433        -5.4379982485        -8.3761442886
        0.6250000000        -1.0000000000         1.7031619996         1.1336531800         2.3577865785        -5.3050236000        -8.3821000000
        0.6300000000        -0.9992894726         1.7035882916         1.0877112966         2.3348196814        -6.5017954361        -8.3761442886
        0.6350000000        -0.9971589003         1.7048661059         1.1259961995         2.3118527843        -5.5044855727        -8.3582856179
        0.6400000000        -0.9936113105         1.7069922638         1.1132345652         2.2965415195        -5.8369221939        -8.3285493659
        0.6450000000        -0.9886517447         1.7099614893         1.1259961995         2.2710227449        -5.5044855727        -8.2869777896
        0.6500000000        -0.9822872507         1.7137664411         1.1030252578         2.2455039703        -6.1028714908        -8.2336299643
        0.6550000000        -0.9745268728         1.7183977567         1.1157868920         2.2250889506        -5.7704348696        -8.1685817004
        0.6600000000        -0.9653816388         1.7238441090         1.1157868920         2.2097776859        -5.7704348696        -8.0919254349
        0.6650000000        -0.9548645447         1.7300922722         1.0928159503         2.1791551564        -6.3688207877        -8.0037701005
