% f=2.65Hz  n_cycles=5  N_total=377  dt=0.005000
% Amp=2.0000V  K_lin=4.959600
Time[s]              Vcmd[V]              Vc[V]                Vg[V]                Pot[V]               Omega[rad/s]         Omega_target[rad/s] 
        0.0000000000         0.0000000000         2.5000000000         1.3480486360         1.4263513060         0.2716007195         0.0000000000
        0.0050000000         0.1663121389         2.7666751054         1.3378393285         1.4289031834         0.0056514226         0.8248416840
        0.0100000000         0.3314722457         2.8183556852         1.3225253674         1.4314550609        -0.3932725228         1.6439697496
        0.0150000000         0.4943362682         2.8693505299         1.3327346748         1.4212475511        -0.1273232259         2.4517101559
        0.0200000000         0.6537760593         2.9193047534         1.3403916554         1.4365588158         0.0721387468         3.2424677438
        0.0250000000         0.8086871911         2.9678700524         1.3378393285         1.4263513060         0.0056514226         4.0107649928
        0.0300000000         0.9579966053         3.0147071802         1.3429439823         1.4340069384         0.1386260710         4.7512799636
        0.0350000000         1.1006700465         3.0594883744         1.3403916554         1.4289031834         0.0721387468         5.4588831627
        0.0400000000         1.2357192262         3.1018997188         1.3684672508         1.4212475511         0.8034993133         6.1286730742
        0.0450000000         1.3622086684         3.1416434205         1.4680079982         1.4365588158         3.3965049581         6.7560101117
        0.0500000000         1.4792621900         3.1784399845         1.3990951731         1.4365588158         1.6013472040         7.3365487573
        0.0550000000         1.5860689696         3.2120302671         1.4297230954         1.4518700806         2.3991950947         7.8662676618
        0.0600000000         1.6818891646         3.2421773900         1.4782173056         1.4544219580         3.6624542550         8.3414975007
        0.0650000000         1.7660590353         3.2686684992         1.4552463639         1.4722851002         3.0640683370         8.7589463915
        0.0700000000         1.8379955432         3.2913163536         1.4986359205         1.4850444875         4.1943528488         9.1157226960
        0.0750000000         1.8972003893         3.3099607272         1.4935312668         1.4952519974         4.0613782004         9.4093550505
        0.0800000000         1.9432634658         3.3244696139         1.4960835936         1.5233226494         4.1278655246         9.6378094851
        0.0850000000         1.9758656973         3.3347402233         1.5369208233         1.5360820367         5.1916627122         9.7995035125
        0.0900000000         1.9947812505         3.3406997573         1.5292638428         1.5641526888         4.9922007396         9.8933170898
        0.0950000000         1.9998790986         3.3423059618         1.5471301308         1.5845677084         5.4576120091         9.9186003772
        0.1000000000         1.9911239292         3.3395474468         1.5318161696         1.5922233408         5.0586880638         9.8751782393
        0.1050000000         1.9685763888         3.3324437732         1.5394731502         1.6177421154         5.2581500365         9.7633514580
        0.1100000000         1.9323926626         3.3210453038         1.5777580530         1.6356052576         6.2554598999         9.5838946492
        0.1150000000         1.8828233925         3.3054328223         1.5675487456         1.6636759097         5.9895106030         9.3380508975
        0.1200000000         1.8202119414         3.2857169210         1.5624440919         1.6713315420         5.8565359545         9.0275231444
        0.1250000000         1.7449920141         3.2620371659         1.5726533993         1.7019540715         6.1224852514         8.6544623934
        0.1300000000         1.6576846538         3.2345610443         1.5726533993         1.7198172138         6.1224852514         8.2214528090
        0.1350000000         1.5588946321         3.2034827072         1.5879673605         1.7504397433         6.5214091968         7.7314938174
        0.1400000000         1.4493062604         3.1690215163         1.5803103799         1.7759585179         6.3219472241         7.1879793290
        0.1450000000         1.3296786493         3.1314204088         1.5854150336         1.7938216601         6.4549218725         6.5946742290
        0.1500000000         1.2008404507         3.0909440965         1.5726533993         1.8218923121         6.1224852514         5.9556882991
        0.1550000000         1.0636841173         3.0478771124         1.5905196873         1.8525148416         6.5878965210         5.2754477482
        0.1600000000         0.9191597212         3.0025217243         1.5981766679         1.8754817388         6.7873584937         4.5586645535
        0.1650000000         0.7682683725         2.9551957312         1.5879673605         1.8933448810         6.5214091968         3.8103038200
        0.1700000000         0.6120552844         2.9062301614         1.5854150336         1.9163117781         6.4549218725         3.0355493884
        0.1750000000         0.4516025337         2.8559668922         1.5675487456         1.9392786752         5.9895106030         2.2397679263
        0.1800000000         0.2880215651         2.8047562077         1.5701010725         1.9699012047         6.0559979272         1.4284717543
        0.1850000000         0.1224454920         2.7529543157         1.5777580530         1.9852124695         6.2554598999         0.6072806620
        0.1900000000        -0.0439787522         2.5000000000         1.5496824576         2.0056274892         5.5240993334        -0.2181170193
        0.1950000000        -0.2100983587         2.2113797182         1.5547871113         2.0311462638         5.6570739818        -1.0420038199
        0.2000000000        -0.3747626292         2.1518953778         1.5445778039         2.0464575285         5.3911246849        -1.8586727356
        0.2050000000        -0.5368309461         2.0941253584         1.5318161696         2.0770800580         5.0586880638        -2.6624667601
        0.2100000000        -0.6951806739         2.0383963455         1.4935312668         2.0898394453         4.0613782004        -3.4478180705
        0.2150000000        -0.8487149357         1.9850126172         1.4552463639         2.1000469552         3.0640683370        -4.2092865951
        0.2200000000        -0.9963702107         1.9342562412         1.4322754222         2.1204619748         2.4656824189        -4.9415976969
        0.2250000000        -1.1371237015         1.8863873552         1.2638218497         2.1179100974        -1.9224809800        -5.6396787098
        0.2300000000        -1.2700004189         1.8416444959         1.3174207137         2.1128063424        -0.5262471713        -6.2986940774
        0.2350000000        -1.3940799355         1.8002449520         1.3174207137         2.1102544650        -0.5262471713        -6.9140788479
        0.2400000000        -1.5085027615         1.7623851229         1.2178799663         2.0923913228        -3.1192528161        -7.4815702958
        0.2450000000        -1.6124762983         1.7282408680         1.2714788303         2.0949432002        -1.7230190073        -7.9972374489
        0.2500000000        -1.7052803287         1.6979678366         1.2331939274         2.0898394453        -2.7203288707        -8.4575083183
        0.2550000000        -1.7862720060         1.6717017720         1.1821473903         2.0745281806        -4.0500753553        -8.8591946410
        0.2600000000        -1.8548903067         1.6495587826         1.2025660052         2.0592169158        -3.5181767615        -9.1995139650
        0.2650000000        -1.9106599167         1.6316355796         1.1668334292         2.0362500187        -4.4489993006        -9.4761089230
        0.2700000000        -1.9531945241         1.6180096767         1.1923566977         2.0311462638        -3.7841260584        -9.6870635619
        0.2750000000        -1.9821994947         1.6087395518         1.1438624875         2.0030756117        -5.0473852187        -9.8309166141
        0.2800000000        -1.9974739132         1.6038647694         1.1387578337         1.9826605920        -5.1803598671        -9.9066716200
        0.2850000000        -1.9989119748         1.6034060643         1.1387578337         1.9750049597        -5.1803598671        -9.9138038301
        0.2900000000        -1.9865037181         1.6073653853         1.1157868920         1.9469343076        -5.7787457852        -9.8522638402
        0.2950000000        -1.9603350942         1.6157258987         1.1234438726         1.9316230429        -5.5792838125        -9.7224779333
        0.3000000000        -1.9205873714         1.6284519536         1.1157868920         1.9035523908        -5.7787457852        -9.5253451270
        0.3050000000        -1.8675358791         1.6454890062         1.0902636235         1.8907930035        -6.4436190274        -9.2622309458
        0.3100000000        -1.8015481012         1.6667635058         1.1208915457         1.8678261064        -5.6457711367        -8.9349579628
        0.3150000000        -1.7230811303         1.6921827407         1.1004729309         1.8499629642        -6.1776697305        -8.5457931740
        0.3200000000        -1.6326785014         1.7216346467         1.0877112966         1.8244441896        -6.5101063517        -8.0974322957
        0.3250000000        -1.5309664270         1.7549875768         1.1234438726         1.7938216601        -5.5792838125        -7.5929810913
        0.3300000000        -1.4186494591         1.7920900372         1.0953682772         1.7708547629        -6.3106443790        -7.0359338576
        0.3350000000        -1.2965056094         1.8327703894         1.0851589698         1.7478878658        -6.5765936759        -6.4301492204
        0.3400000000        -1.1653809593         1.8768365252         1.0775019892         1.7172653363        -6.7760556486        -5.7798234059
        0.3450000000        -1.0261837999         1.9240755207         1.1055775846         1.7045059490        -6.0446950821        -5.0894611740
        0.3500000000        -0.8798783397         1.9742532788         1.0800543160         1.6687796646        -6.7095683243        -4.3638446136
        0.3550000000        -0.7274780261         2.0271141732         1.0979206040         1.6534683998        -6.2441570547        -3.6080000182
        0.3600000000        -0.5700385249         2.0823807126         1.1183392189         1.6356052576        -5.7122584609        -2.8271630683
        0.3650000000        -0.4086504083         2.1397532484         1.0877112966         1.6049827281        -6.5101063517        -2.0267425649
        0.3700000000        -0.2444315999         2.1989097563         1.1234438726         1.5845677084        -5.5792838125        -1.2122829628
        0.3750000000        -0.0785196315         2.2595057331         1.1157868920         1.5616008113        -5.7787457852        -0.3894259645
        0.3800000000         0.0879362366         2.7421620228         1.1259961995         1.5488414240        -5.5127964883         0.4361285592
        0.3850000000         0.2537829769         2.7940416202         1.1413101606         1.5233226494        -5.1138725429         1.2586620520
        0.3900000000         0.4178717808         2.8454044515         1.1872520440         1.5080113847        -3.9171007068         2.0724768841
        0.3950000000         0.5790660172         2.8958933931         1.2229846200         1.4952519974        -2.9862781676         2.8719358191
        0.4000000000         0.7362491054         2.9451567260         1.2791358108         1.4875963650        -1.5235570347         3.6515010630
        0.4050000000         0.8883322494         2.9928506259         1.3199730405         1.4748369777        -0.4597598470         4.4057726239
        0.4100000000         1.0342619803         3.0386416145         1.3454963091         1.4722851002         0.2051133952         5.1295257174
        0.4150000000         1.1730274535         3.0822089550         1.3250776943         1.4722851002        -0.3267851986         5.8177469583
        0.4200000000         1.3036674506         3.1232469715         1.3454963091         1.4850444875         0.2051133952         6.4656690880
        0.4250000000         1.4252770379         3.1614672744         1.3454963091         1.4850444875         0.2051133952         7.0688039969
        0.4300000000         1.5370138344         3.1966008727         1.3429439823         1.4850444875         0.1386260710         7.6229738133
        0.4350000000         1.6381038477         3.2284001566         1.4884266131         1.4927001199         3.9284035519         8.1243398430
        0.4400000000         1.7278468344         3.2566407313         1.4450370565         1.4952519974         2.7981190401         8.5694291598
        0.4450000000         1.8056211514         3.2811230876         1.4552463639         1.5029076297         3.0640683370         8.9551586625
        0.4500000000         1.8708880617         3.3016740940         1.5011882474         1.5233226494         4.2608401731         9.2788564306
        0.4550000000         1.9231954660         3.3181482962         1.4960835936         1.5284264043         4.1278655246         9.5382802333
        0.4600000000         1.9621810349         3.3304290124         1.4884266131         1.5411857916         3.9284035519         9.7316330606
        0.4650000000         1.9875747180         3.3384292145         1.5267115159         1.5641526888         4.9257134153         9.8575755716
        0.4700000000         1.9992006153         3.3420921868         1.5011882474         1.5794639535         4.2608401731         9.9152353716
        0.4750000000         1.9969781949         3.3413919556         1.5292638428         1.5922233408         4.9922007396         9.9042130554
        0.4800000000         1.9809228514         3.3363334864         1.5369208233         1.6177421154         5.1916627122         9.8245849738
        0.4850000000         1.9511457990         3.3269526463         1.5547871113         1.6509165224         5.6570739818         9.6769027046
        0.4900000000         1.9078533011         3.3133159317         1.5547871113         1.6585721547         5.6570739818         9.4621892323
        0.4950000000         1.8513452419         3.2955199648         1.5445778039         1.6764352970         5.3911246849         9.1819318615
        0.5000000000         1.7820130484         3.2736907628         1.5547871113         1.6994021941         5.6570739818         8.8380719147
        0.5050000000         1.7003369798         3.2479827870         1.5803103799         1.7274728461         6.3219472241         8.4329912848
        0.5100000000         1.6068828002         3.2185777807         1.5649964188         1.7453359884         5.9230232787         7.9694959360
        0.5150000000         1.5022978601         3.1856834065         1.5777580530         1.7708547629         6.2554598999         7.4507964669
        0.5200000000         1.3873066116         3.1495316958         1.5828627068         1.7963735375         6.3884345483         6.8804858710
        0.5250000000         1.2627055909         3.1103773238         1.5777580530         1.8269960670         6.2554598999         6.2625146486
        0.5300000000         1.1293579001         3.0684957261         1.5803103799         1.8397554543         6.3219472241         5.6011634415
        0.5350000000         0.9881872291         3.0241810729         1.5752057262         1.8601704740         6.1889725756         4.9010133815
        0.5400000000         0.8401714568         2.9777441184         1.5649964188         1.8856892486         5.9230232787         4.1669143573
        0.5450000000         0.6863358778         2.9295099428         1.5854150336         1.9137599006         6.4549218725         3.4039514195
        0.5500000000         0.5277460999         2.8798156070         1.5752057262         1.9443824302         6.1889725756         2.6174095572
        0.5550000000         0.3655006631         2.8290077369         1.5701010725         1.9673493273         6.0559979272         1.8127370887
        0.5600000000         0.2007234297         2.7774400574         1.5752057262         1.9852124695         6.1889725756         0.9955079220
        0.5650000000         0.0345557997         2.5000000000         1.5369208233         2.0056274892         5.1916627122         0.1713829440
        0.5700000000        -0.1318511959         2.2399344026         1.5573394382         2.0285943863         5.7235613061        -0.6539291912
        0.5750000000        -0.2973448678         2.1797612432         1.5394731502         2.0464575285         5.2581500365        -1.4747116063
        0.5800000000        -0.4607788534         2.1211405027         1.5241591891         2.0668725482         4.8592260911        -2.2852788011
        0.5850000000        -0.6210210572         2.0644094718         1.5011882474         2.0872875679         4.2608401731        -3.0800160354
        0.5900000000        -0.7769614933         2.0098829798         1.4654556714         2.1051507101         3.3300176339        -3.8534182220
        0.5950000000        -0.9275199734         1.9578535404         1.4322754222         2.1077025875         2.4656824189        -4.6001280601
        0.6000000000        -1.0716535900         1.9085915971         1.2587171960         2.1077025875        -2.0554556285        -5.3149731448
        0.6050000000        -1.2083639398         1.8623458325         1.3174207137         2.1051507101        -0.5262471713        -5.9930017960
        0.6100000000        -1.3367040403         1.8193435132         1.3097637331         2.1000469552        -0.7257091439        -6.6295173584
        0.6150000000        -1.4557848889         1.7797908478         1.2204322931         2.0949432002        -3.0527654919        -7.2201107350
        0.6200000000        -1.5647816212         1.7438733418         1.2740311571         2.0898394453        -1.6565316831        -7.7606909283
        0.6250000000        -1.6629392246         1.7117561380         1.2229846200         2.0745281806        -2.9862781676        -8.2475133784
        0.6300000000        -1.7495777687         1.6835843335         1.1898043709         2.0694244256        -3.8506133826        -8.6772059015
        0.6350000000        -1.8240971144         1.6594832665         1.2102229857         2.0592169158        -3.3187147888        -9.0467920487
        0.6400000000        -1.8859810718         1.6395587709         1.1668334292         2.0388018961        -4.4489993006        -9.3537117236
        0.6450000000        -1.9348009751         1.6238973932         1.2025660052         2.0234906314        -3.5181767615        -9.5958389159
        0.6500000000        -1.9702186523         1.6125665726         1.1540717949         2.0081793666        -4.7814359218        -9.7714964280
        0.6550000000        -1.9919887679         1.6056147823         1.1438624875         1.9877643470        -5.0473852187        -9.8794674931
        0.6600000000        -1.9999605217         1.6030716314         1.1387578337         1.9699012047        -5.1803598671        -9.9190042035
        0.6650000000        -1.9940786941         1.6049479269         1.1259961995         1.9520380625        -5.5127964883        -9.8898326912
