% f=3.90Hz  n_cycles=5  N_total=256  dt=0.005000
% Amp=400.00deg/s
Time[s]              OmegaCmd[deg/s]      Vc[V]                Vg[V]                Pot[V]               Omega[rad/s]         Omega_target[rad/s] 
        0.0000000000         0.0000000000         2.4974092728         1.3506009628         1.2017860896         0.3297771282         0.0000000000
        0.0050000000        48.8863199760         2.7536034241         1.3454963091         1.2094417220         0.1968024797         0.8532272428
        0.0100000000        97.0396923182         2.8111677057         1.3352870017         1.1992342121        -0.0691468172         1.6936621361
        0.0150000000       143.7381584024         2.8651193896         1.3327346748         1.1992342121        -0.1356341414         2.5087041249
        0.0200000000       188.2815728661         2.9150126405         1.3378393285         1.2043379670        -0.0026594930         3.2861333673
        0.0250000000       230.0021008173         2.9605163525         1.3327346748         1.1992342121        -0.1356341414         4.0142939458
        0.0300000000       268.2742306147         3.0013693950         1.3301823480         1.1966823347        -0.2021214656         4.6822686225
        0.0350000000       302.5241521006         3.0373403687         1.3378393285         1.2017860896        -0.0026594930         5.2800425210
        0.0400000000       332.2383596783         3.0681996181         1.3454963091         1.2094417220         0.1968024797         5.7986532778
        0.0450000000       356.9713512495         3.0937080131         1.3403916554         1.2017860896         0.0638278313         6.2303254146
        0.0500000000       376.3523075817         3.1136229254         1.3327346748         1.1966823347        -0.1356341414         6.5685869148
        0.0550000000       390.0906519637         3.1277178186         1.3429439823         1.2119935994         0.1303151555         6.8083662580
        0.0600000000       397.9804067925         3.1358088717         1.3352870017         1.2043379670        -0.0691468172         6.9460684570
        0.0650000000       399.9032817748         3.1377807343         1.3378393285         1.2043379670        -0.0026594930         6.9796289565
        0.0700000000       395.8304474411         3.1336041415         1.3378393285         1.2043379670        -0.0026594930         6.9085445875
        0.0750000000       385.8229673831         3.1233405363         1.3378393285         1.2043379670        -0.0026594930         6.7338811107
        0.0800000000       370.0308827338         3.1071324346         1.3403916554         1.2043379670         0.0638278313         6.4582572378
        0.0850000000       348.6909626154         3.0851821698         1.3506009628         1.2068898445         0.3297771282         6.0858053696
        0.0900000000       322.1231542844         3.0577249161         1.3582579434         1.2068898445         0.5292391008         5.6221096392
        0.0950000000       290.7257861948         3.0250037070         1.3684672508         1.2094417220         0.7951883978         5.0741221895
        0.1000000000       254.9695958995         2.9872541016         1.3965428462         1.2170973543         1.5265489642         4.4500589409
        0.1050000000       215.3906723307         2.9447041649         1.4475893834         1.2247529867         2.8562954488         3.7592764103
        0.1100000000       172.5824182724         2.8975919750         1.5088452279         1.2400642515         4.4519912302         3.0121314299
        0.1150000000       127.1866535330         2.8461987261         1.5062929011         1.2579273937         4.3855039060         2.2198258687
        0.1200000000        79.8839922058         2.7908916075         1.4960835936         1.2732386584         4.1195546091         1.3942386836
        0.1250000000        31.3836382911         2.7321679149         1.4731126519         1.2808942908         3.5211686910         0.5477478194
        0.1300000000       -17.5872473271         2.3033633012         1.4680079982         1.2962055556         3.3881940426        -0.3069553722
        0.1350000000       -66.2944491312         2.2111979075         1.4654556714         1.3038611879         3.3217067184        -1.1570564131
        0.1400000000      -114.0077049880         2.1481082176         1.4424847297         1.3217243302         2.7233208003        -1.9898098247
        0.1450000000      -160.0116548949         2.0908996815         1.4169614611         1.3191724527         2.0584475581        -2.7927302195
        0.1500000000      -203.6165663001         2.0393683752         1.3990951731         1.3370355949         1.5930362885        -3.5537794935
        0.1550000000      -244.1686751926         1.9933169353         1.3837812120         1.3344837175         1.1941123431        -4.2615473123
        0.1600000000      -281.0599879195         1.9526200412         1.3608102703         1.3421393498         0.5957264251        -4.9054221848
        0.1650000000      -313.7373967734         1.9172595155         1.3378393285         1.3395874724        -0.0026594930        -5.4757505603
        0.1700000000      -341.7109726797         1.8873289172         1.3250776943         1.3370355949        -0.3350961141        -5.9639815635
        0.1750000000      -364.5613106542         1.8630118623         1.3378393285         1.3421393498        -0.0026594930        -6.3627951963
        0.1800000000      -381.9458178987         1.8445417022         1.3327346748         1.3370355949        -0.1356341414        -6.6662120866
        0.1850000000      -393.6038502605         1.8321522444         1.3429439823         1.3497949822         0.1303151555        -6.8696831356
        0.1900000000      -399.3606200436         1.8260297288         1.3429439823         1.3497949822         0.1303151555        -6.9701577226
        0.1950000000      -399.1298165830         1.8262752764         1.3378393285         1.3421393498        -0.0026594930        -6.9661294423
        0.2000000000      -392.9149002915         1.8328847136         1.3506009628         1.3548987371         0.3297771282        -6.8576586902
        0.2050000000      -380.8090507783         1.8457494030         1.3301823480         1.3319318400        -0.2021214656        -6.6463717575
        0.2100000000      -362.9937698164         1.8646779291         1.3352870017         1.3421393498        -0.0691468172        -6.3354364475
        0.2150000000      -339.7361601053         1.8894347377         1.3148683868         1.3421393498        -0.6010454110        -5.9295145819
        0.2200000000      -311.3849206268         1.9197886049         1.3174207137         1.3370355949        -0.5345580868        -5.4346921060
        0.2250000000      -278.3651186369         1.9555615919         1.2842404646         1.3395874724        -1.3988933017        -4.8583878429
        0.2300000000      -241.1718166756         1.9966682605         1.2025660052         1.3293799625        -3.5264876770        -4.2092422640
        0.2350000000      -200.3626501443         2.0431355661         1.1617287755         1.3115168203        -4.5902848646        -3.4969879430
        0.2400000000      -156.5494667349         2.0950960170         1.1719380829         1.2962055556        -4.3243355677        -2.7323036368
        0.2450000000      -110.3891530595         2.1527501732         1.1795950634         1.2808942908        -4.1248735950        -1.9266541794
        0.2500000000       -62.5737860161         2.2162989683         1.2076706589         1.2630311486        -3.3935130285        -1.0921185914
        0.2550000000       -13.8202565498         2.3449257681         1.2076706589         1.2528236388        -3.3935130285        -0.2412089803
        0.2600000000        35.1404786203         2.7367924369         1.2025660052         1.2400642515        -3.5264876770         0.6133170527
        0.2650000000        83.5743561610         2.7952745799         1.2204322931         1.2273048642        -3.0610764074         1.4586476852
        0.2700000000       130.7552118620         2.8502963766         1.2408509080         1.2196492318        -2.5291778136         2.2821089611
        0.2750000000       175.9756679424         2.9013719747         1.2510602154         1.2068898445        -2.2632285167         3.0713548090
        0.2800000000       218.5577386937         2.9481424084         1.2791358108         1.2017860896        -1.5318679502         3.8145521459
        0.2850000000       257.8629954510         2.9903312453         1.3046590794         1.1966823347        -0.8669947079         4.5005582897
        0.2900000000       293.3021384890         3.0277021806         1.3378393285         1.2068898445        -0.0026594930         5.1190880198
        0.2950000000       324.3438323329         3.0600269724         1.3582579434         1.2017860896         0.5292391008         5.6608677827
        0.3000000000       350.5226720175         3.0870692670         1.3352870017         1.1992342121        -0.0691468172         6.1177747296
        0.3050000000       371.4461608564         3.1085859259         1.3378393285         1.1941304572        -0.0026594930         6.4829585008
        0.3100000000       386.8005951050         3.1243433396         1.3276300211         1.1941304572        -0.2686087899         6.7509439333
        0.3150000000       396.3557672889         3.1341428460         1.3480486360         1.2043379670         0.2632898039         6.9177131485
        0.3200000000       399.9684176815         3.1378475300         1.3506009628         1.1966823347         0.3297771282         6.9807657925
        0.3250000000       397.5843821821         3.1354027593         1.3403916554         1.2068898445         0.0638278313         6.9391565236
        0.3300000000       389.2394043929         3.1268447679         1.3480486360         1.1992342121         0.2632898039         6.7935091852
        0.3350000000       375.0585997189         3.1122949406         1.3403916554         1.1992342121         0.0638278313         6.5460074530
        0.3400000000       355.2545795254         3.0919413577         1.3403916554         1.1941304572         0.0638278313         6.2003620955
        0.3450000000       330.1242634772         3.0660126967         1.3506009628         1.1941304572         0.3297771282         5.7617553384
        0.3500000000       300.0444278522         3.0347518735         1.3710195777         1.2017860896         0.8616757220         5.2367631683
        0.3550000000       265.4660565730         2.9983972946         1.3812288851         1.2068898445         1.1276250189         4.6332567395
        0.3600000000       226.9075796507         2.9571781244         1.4016475000         1.2145454769         1.6595236127         3.9602843626
        0.3650000000       184.9471004164         2.9113268619         1.4680079982         1.2273048642         3.3881940426         3.2279358443
        0.3700000000       140.2137280765         2.8611084802         1.5037405742         1.2349604965         4.3190165818         2.4471912114
        0.3750000000        93.3781455424         2.8068613247         1.4986359205         1.2553755162         4.1860419333         1.6297560891
        0.3800000000        45.1425539494         2.7490418333         1.4731126519         1.2630311486         3.5211686910         0.7878861992
        0.3850000000        -3.7698553733         2.4558151998         1.4705603251         1.2834461683         3.4546813668        -0.0657963886
        0.3900000000       -52.6257436369         2.2300759751         1.4654556714         1.2962055556         3.3217067184        -0.9184924978
        0.3950000000      -100.6926194674         2.1652996767         1.4475893834         1.3013093105         2.8562954488        -1.7574177422
        0.4000000000      -147.2498210739         2.1064512189         1.4271707685         1.3140686978         2.3243968550        -2.5699942007
        0.4050000000      -191.5993210579         2.0533403699         1.4093044805         1.3242762076         1.8589855854        -3.3440389970
        0.4100000000      -233.0761918674         2.0057600514         1.3761242314         1.3191724527         0.9946503704        -4.0679469561
        0.4150000000      -271.0585749880         1.9635597123         1.3633625971         1.3319318400         0.6622137493        -4.7308645993
        0.4200000000      -304.9770044046         1.9266892148         1.3454963091         1.3344837175         0.1968024797        -5.3228528697
        0.4250000000      -334.3229445473         1.8952117782         1.3301823480         1.3293799625        -0.2021214656        -5.8350361473
        0.4300000000      -358.6564147141         1.8692890622         1.3378393285         1.3268280851        -0.0026594930        -6.2597353202
        0.4350000000      -377.6125856564         1.8491451833         1.3378393285         1.3293799625        -0.0026594930        -6.5905829167
        0.4400000000      -390.9072494273         1.8350189224         1.3454963091         1.3370355949         0.1968024797        -6.8226185724
        0.4450000000      -398.3410804821         1.8271143436         1.3352870017         1.3268280851        -0.0691468172        -6.9523634004
        0.4500000000      -399.8026241463         1.8255594682         1.3276300211         1.3217243302        -0.2686087899        -6.9778721495
        0.4550000000      -395.2699676441         1.8303806762         1.3250776943         1.3242762076        -0.3350961141        -6.8987623696
        0.4600000000      -384.8110686344         1.8414974591         1.3378393285         1.3319318400        -0.0026594930        -6.7162201458
        0.4650000000      -368.5827363286         1.8587384624         1.3301823480         1.3268280851        -0.2021214656        -6.4329823149
        0.4700000000      -346.8282804658         1.8818759396         1.3250776943         1.3217243302        -0.3350961141        -6.0532954332
        0.4750000000      -319.8738633948         1.9106723216         1.3250776943         1.3319318400        -0.3350961141        -5.5828521073
        0.4800000000      -288.1236099552         1.9449300591         1.3046590794         1.3268280851        -0.8669947079        -5.0287056464
        0.4850000000      -252.0535484741         1.9845346119         1.2357462543         1.3217243302        -2.6621524620        -4.3991643122
        0.4900000000      -212.2044737227         2.0294806635         1.1591764486         1.3013093105        -4.6567721888        -3.7036667539
        0.4950000000      -169.1738388341         2.0798733904         1.1617287755         1.2834461683        -4.5902848646        -2.9526404959
        0.5000000000      -123.6067977500         2.1358997622         1.1821473903         1.2655830261        -4.0583862708        -2.1573455986
        0.5050000000       -76.1865324925         2.1977690499         1.1974613514         1.2604792711        -3.6594623254        -1.3297058377
        0.5100000000       -27.6240102858         2.2656264530         1.1974613514         1.2349604965        -3.6594623254        -0.4821299321
        0.5150000000        21.3526759035         2.7197567001         1.2076706589         1.2196492318        -3.3935130285         0.3726744986
        0.5200000000        70.0092235901         2.7791051613         1.2102229857         1.2170973543        -3.3270257043         1.2218914584
        0.5250000000       117.6161300929         2.8351586516         1.2306416006         1.2043379670        -2.7951271105         2.0527887236
        0.5300000000       163.4596298945         2.8873883185         1.2536125423         1.1915785797        -2.1967411924         2.8529087358
        0.5350000000       206.8523960553         2.9354037486         1.2740311571         1.1864748248        -1.6648425986         3.6102553768
        0.5400000000       247.1438452361         2.9789097814         1.2970020988         1.1839229474        -1.0664566806         4.3134738254
        0.5450000000       283.7298918289         3.0176626211         1.3199730405         1.1839229474        -0.4680707626         4.9520207987
        0.5500000000       316.0620049503         3.0514341425         1.3352870017         1.1788191925        -0.0691468172         5.5163226268
        0.5550000000       343.6554325097         3.0799908897         1.3429439823         1.1864748248         0.1303151555         5.9979187897
        0.5600000000       366.0964690484         3.1030905494         1.3378393285         1.1813710699        -0.0026594930         6.3895887648
        0.5650000000       383.0486583830         3.1204945096         1.3352870017         1.1788191925        -0.0691468172         6.6854602841
        0.5700000000       394.2578380596         3.1319914472         1.3378393285         1.1788191925        -0.0026594930         6.8810973759
        0.5750000000       399.5559499848         3.1374245522         1.3378393285         1.1788191925        -0.0026594930         6.9735668732
        0.5800000000       398.8635601042         3.1367145223         1.3378393285         1.1813710699        -0.0026594930         6.9614823900
        0.5850000000       392.1910493492         3.1298719181         1.3403916554         1.1890267023         0.0638278313         6.8450251080
        0.5900000000       379.6384579961         3.1169954928         1.3429439823         1.1864748248         0.1303151555         6.6259410592
        0.5950000000       361.3939857732         3.0982569511         1.3480486360         1.1788191925         0.2632898039         6.3075149486
        0.6000000000       337.7311702008         3.0738763274         1.3454963091         1.1737154375         0.1968024797         5.8945209066
        0.6050000000       309.0047854711         3.0440948876         1.3582579434         1.1762673150         0.5292391008         5.3931509109
        0.6100000000       275.6455233549         3.0091534885         1.3863335388         1.1915785797         1.2605996673         4.8109219509
        0.6150000000       238.1535358833         2.9692833990         1.4144091342         1.1915785797         1.9919602338         4.1565633264
        0.6200000000       197.0909366193         2.9247138872         1.4654556714         1.2017860896         3.3217067184         3.4398857698
        0.6250000000       153.0733729460         2.8756970084         1.5062929011         1.2298567416         4.3855039060         2.6716343550
        0.6300000000       106.7607957282         2.8225458808         1.4960835936         1.2324086191         4.1195546091         1.8633273975
        0.6350000000        58.8475647355         2.7656792533         1.4756649788         1.2400642515         3.5876560153         1.0270837614
        0.6400000000        10.0520381773         2.6083167661         1.4680079982         1.2604792711         3.3881940426         0.1754411627
        0.6450000000       -38.8941975690         2.2494330858         1.4654556714         1.2834461683         3.3217067184        -0.6788318075
        0.6500000000       -87.2572965586         2.1829633947         1.4680079982         1.2911018006         3.3881940426        -1.5229271213
        0.6550000000      -134.3121557570         2.1224592835         1.4271707685         1.2936536781         2.3243968550        -2.3441893434
        0.6600000000      -179.3532864360         2.0677519654         1.4322754222         1.2987574330         2.4573715034        -3.1303053726
        0.6650000000      -221.7053914947         2.0186305226         1.4067521537         1.3191724527         1.7924982612        -3.8694890510
