% f=0.80Hz  n_cycles=5  N_total=1250  dt=0.005000
% Amp=1.0000V  K_lin=7.165500
Time[s]              Vcmd[V]              Vc[V]                Vg[V]                Pot[V]               Omega[rad/s]         Omega_target[rad/s] 
        0.0000000000         0.0000000000         2.5000000000         1.3352870017         1.6942984392        -0.0608359017         0.0000000000
        0.0050000000         0.0251300954         2.7466477294         1.3327346748         1.6866428068        -0.1273232259         0.1800696989
        0.0100000000         0.0502443182         2.7565028302         1.3327346748         1.6866428068        -0.1273232259         0.3600256619
        0.0150000000         0.0753268055         2.7663783822         1.3378393285         1.6917465617         0.0056514226         0.5397542250
        0.0200000000         0.1003617149         2.7762683227         1.3403916554         1.6994021941         0.0721387468         0.7191418678
        0.0250000000         0.1253332336         2.7861665191         1.3378393285         1.6968503166         0.0056514226         0.8980752851
        0.0300000000         0.1502255891         2.7960667717         1.3378393285         1.6942984392         0.0056514226         1.0764414588
        0.0350000000         0.1750230590         2.8059628165         1.3352870017         1.6917465617        -0.0608359017         1.2541277291
        0.0400000000         0.1997099805         2.8158483277         1.3378393285         1.6917465617         0.0056514226         1.4310218654
        0.0450000000         0.2242707609         2.8257169211         1.3327346748         1.6891946843        -0.1273232259         1.6070121376
        0.0500000000         0.2486898872         2.8355621575         1.3735719045         1.6942984392         0.9364739617         1.7819873865
        0.0550000000         0.2729519355         2.8453775457         1.3939905194         1.6968503166         1.4683725555         1.9558370939
        0.0600000000         0.2970415816         2.8551565466         1.3812288851         1.7019540715         1.1359359344         2.1284514528
        0.0650000000         0.3209436098         2.8648925771         1.3837812120         1.7070578265         1.2024232586         2.2997214361
        0.0700000000         0.3446429232         2.8745790138         1.4016475000         1.7172653363         1.6678345282         2.4695388660
        0.0750000000         0.3681245527         2.8842091977         1.3888858657         1.7249209687         1.3353979071         2.6377964823
        0.0800000000         0.3913736668         2.8937764385         1.3990951731         1.7223690912         1.6013472040         2.8043880097
        0.0850000000         0.4143755810         2.9032740195         1.4041998268         1.7274728461         1.7343218525         2.9692082256
        0.0900000000         0.4371157667         2.9126952026         1.3990951731         1.7351284785         1.6013472040         3.1321530259
        0.0950000000         0.4595798606         2.9220332333         1.4067521537         1.7402322334         1.8008091767         3.2931194913
        0.1000000000         0.4817536741         2.9312813465         1.4093044805         1.7478878658         1.8672965009         3.4520059518
        0.1050000000         0.5036232016         2.9404327718         1.4144091342         1.7631991306         2.0002711494         3.6087120513
        0.1100000000         0.5251746300         2.9494807397         1.4246184417         1.7555434982         2.2662204463         3.7631388110
        0.1150000000         0.5463943467         2.9584184877         1.4195137880         1.7734066404         2.1332457978         3.9151886915
        0.1200000000         0.5672689491         2.9672392667         1.4169614611         1.7810622728         2.0667584736         4.0647656550
        0.1250000000         0.5877852523         2.9759363474         1.4271707685         1.7912697826         2.3327077705         4.2117752253
        0.1300000000         0.6079302977         2.9845030275         1.4297230954         1.7963735375         2.3991950947         4.3561245481
        0.1350000000         0.6276913613         2.9929326384         1.4271707685         1.8014772924         2.3327077705         4.4977224493
        0.1400000000         0.6470559616         3.0012185527         1.4450370565         1.8167885572         2.7981190401         4.6364794926
        0.1450000000         0.6660118674         3.0093541917         1.4399324028         1.8295479445         2.6651443916         4.7723080361
        0.1500000000         0.6845471059         3.0173330328         1.4526940371         1.8448592093         2.9975810128         4.9051222875
        0.1550000000         0.7026499698         3.0251486176         1.4424847297         1.8423073318         2.7316317159         5.0348383586
        0.1600000000         0.7203090249         3.0327945599         1.4577986908         1.8678261064         3.1305556612         5.1613743178
        0.1650000000         0.7375131174         3.0402645537         1.4501417102         1.8729298613         2.9310936885         5.2846502424
        0.1700000000         0.7542513807         3.0475523816         1.4629033445         1.8805854937         3.2635303097         5.4045882687
        0.1750000000         0.7705132428         3.0546519233         1.4654556714         1.8933448810         3.3300176339         5.5211126411
        0.1800000000         0.7862884321         3.0615571642         1.4603510177         1.9010005134         3.1970429854         5.6341497605
        0.1850000000         0.8015669849         3.0682622036         1.4629033445         1.9112080232         3.2635303097         5.7436282301
        0.1900000000         0.8163392507         3.0747612641         1.4884266131         1.9265192879         3.9284035519         5.8494789010
        0.1950000000         0.8305958992         3.0810486995         1.4629033445         1.9367267978         3.2635303097         5.9516349157
        0.2000000000         0.8443279255         3.0871190042         1.4756649788         1.9545899400         3.5959669308         6.0500317502
        0.2050000000         0.8575266562         3.0929668214         1.4833219594         1.9724530822         3.7954289035         6.1446072550
        0.2100000000         0.8701837547         3.0985869523         1.4884266131         1.9903162244         3.9284035519         6.2353016941
        0.2150000000         0.8822912264         3.1039743641         1.4858742862         1.9954199793         3.8619162277         6.3220577830
        0.2200000000         0.8938414242         3.1091241990         1.4935312668         2.0183868765         4.0613782004         6.4048207248
        0.2250000000         0.9048270525         3.1140317823         1.4986359205         2.0388018961         4.1943528488         6.4835382444
        0.2300000000         0.9152411726         3.1186926307         1.5037405742         2.0464575285         4.3273274973         6.5581606224
        0.2350000000         0.9250772068         3.1231024602         1.5088452279         2.0719763031         4.4603021457         6.6286407256
        0.2400000000         0.9343289425         3.1272571941         1.5037405742         2.0796319355         4.3273274973         6.6949340372
        0.2450000000         0.9429905359         3.1311529703         1.5292638428         2.1000469552         4.9922007396         6.7569986849
        0.2500000000         0.9510565163         3.1347861486         1.5062929011         2.1153582199         4.3938148215         6.8147954675
        0.2550000000         0.9585217890         3.1381533178         1.5190545354         2.1383251170         4.7262514427         6.8682878792
        0.2600000000         0.9653816388         3.1412513020         1.5088452279         2.1485326269         4.4603021457         6.9174421331
        0.2650000000         0.9716317329         3.1440771672         1.5241591891         2.1944664211         4.8592260911         6.9622271822
        0.2700000000         0.9772681236         3.1466282265         1.5267115159         2.1944664211         4.9257134153         7.0026147394
        0.2750000000         0.9822872507         3.1489020461         1.5394731502         2.2148814408         5.2581500365         7.0385792951
        0.2800000000         0.9866859442         3.1508964496         1.5292638428         2.2404002154         4.9922007396         7.0700981332
        0.2850000000         0.9904614257         3.1526095230         1.5420254771         2.2531596027         5.3246373607         7.0971513458
        0.2900000000         0.9936113105         3.1540396181         1.5292638428         2.2710227449         4.9922007396         7.1197218455
        0.2950000000         0.9961336091         3.1551853562         1.5445778039         2.2863340097         5.3911246849         7.1377953763
        0.3000000000         0.9980267284         3.1560456310         1.5343684965         2.3118527843         5.1251753880         7.1513605226
        0.3050000000         0.9992894726         3.1566196105         1.5573394382         2.3399234363         5.7235613061         7.1604087162
        0.3100000000         0.9999210442         3.1569067393         1.5394731502         2.3577865785         5.2581500365         7.1649342422
        0.3150000000         0.9999210442         3.1569067393         1.5573394382         2.3807534756         5.7235613061         7.1649342422
        0.3200000000         0.9992894726         3.1566196105         1.5394731502         2.3960647404         5.2581500365         7.1604087162
        0.3250000000         0.9980267284         3.1560456310         1.5496824576         2.4113760052         5.5240993334         7.1513605226
        0.3300000000         0.9961336091         3.1551853562         1.5547871113         2.4419985347         5.6570739818         7.1377953763
        0.3350000000         0.9936113105         3.1540396181         1.5573394382         2.4675173092         5.7235613061         7.1197218455
        0.3400000000         0.9904614257         3.1526095230         1.5547871113         2.4828285740         5.6570739818         7.0971513458
        0.3450000000         0.9866859442         3.1508964496         1.5649964188         2.5057954711         5.9230232787         7.0700981332
        0.3500000000         0.9822872507         3.1489020461         1.5573394382         2.5211067359         5.7235613061         7.0385792951
        0.3550000000         0.9772681236         3.1466282265         1.5598917651         2.5517292654         5.7900486303         7.0026147394
        0.3600000000         0.9716317329         3.1440771672         1.5624440919         2.5695924076         5.8565359545         6.9622271822
        0.3650000000         0.9653816388         3.1412513020         1.5624440919         2.6002149371         5.8565359545         6.9174421331
        0.3700000000         0.9585217890         3.1381533178         1.5803103799         2.6257337117         6.3219472241         6.8682878792
        0.3750000000         0.9510565163         3.1347861486         1.5649964188         2.6410449765         5.9230232787         6.8147954675
        0.3800000000         0.9429905359         3.1311529703         1.5598917651         2.6640118736         5.7900486303         6.7569986849
        0.3850000000         0.9343289425         3.1272571941         1.5854150336         2.6895306482         6.4549218725         6.6949340372
        0.3900000000         0.9250772068         3.1231024602         1.5649964188         2.7048419129         5.9230232787         6.6286407256
        0.3950000000         0.9152411726         3.1186926307         1.5649964188         2.7354644424         5.9230232787         6.5581606224
        0.4000000000         0.9048270525         3.1140317823         1.5726533993         2.7584313396         6.1224852514         6.4835382444
        0.4050000000         0.8938414242         3.1091241990         1.5879673605         2.7762944818         6.5214091968         6.4048207248
        0.4100000000         0.8822912264         3.1039743641         1.5701010725         2.8043651338         6.0559979272         6.3220577830
        0.4150000000         0.8701837547         3.0985869523         1.5701010725         2.8273320310         6.0559979272         6.2353016941
        0.4200000000         0.8575266562         3.0929668214         1.5701010725         2.8528508056         6.0559979272         6.1446072550
        0.4250000000         0.8443279255         3.0871190042         1.5675487456         2.8732658252         5.9895106030         6.0500317502
        0.4300000000         0.8305958992         3.0810486995         1.5828627068         2.8987845998         6.3884345483         5.9516349157
        0.4350000000         0.8163392507         3.0747612641         1.5701010725         2.9166477420         6.0559979272         5.8494789010
        0.4400000000         0.8015669849         3.0682622036         1.5649964188         2.9447183941         5.9230232787         5.7436282301
        0.4450000000         0.7862884321         3.0615571642         1.5752057262         2.9702371687         6.1889725756         5.6341497605
        0.4500000000         0.7705132428         3.0546519233         1.5701010725         2.9881003109         6.0559979272         5.5211126411
        0.4550000000         0.7542513807         3.0475523816         1.5803103799         3.0263784728         6.3219472241         5.4045882687
        0.4600000000         0.7375131174         3.0402645537         1.5726533993         3.0416897375         6.1224852514         5.2846502424
        0.4650000000         0.7203090249         3.0327945599         1.5752057262         3.0672085121         6.1889725756         5.1613743178
        0.4700000000         0.7026499698         3.0251486176         1.5777580530         3.0876235318         6.2554598999         5.0348383586
        0.4750000000         0.6845471059         3.0173330328         1.5547871113         3.1080385515         5.6570739818         4.9051222875
        0.4800000000         0.6660118674         3.0093541917         1.5752057262         3.1386610810         6.1889725756         4.7723080361
        0.4850000000         0.6470559616         3.0012185527         1.5598917651         3.1590761006         5.7900486303         4.6364794926
        0.4900000000         0.6276913613         2.9929326384         1.5547871113         3.1820429978         5.6570739818         4.4977224493
        0.4950000000         0.6079302977         2.9845030275         1.5649964188         3.2024580174         5.9230232787         4.3561245481
        0.5000000000         0.5877852523         2.9759363474         1.5547871113         3.2254249146         5.6570739818         4.2117752253
        0.5050000000         0.5672689491         2.9672392667         1.5471301308         3.2458399342         5.4576120091         4.0647656550
        0.5100000000         0.5463943467         2.9584184877         1.5598917651         3.2688068314         5.7900486303         3.9151886915
        0.5150000000         0.5251746300         2.9494807397         1.5445778039         3.2866699736         5.3911246849         3.7631388110
        0.5200000000         0.5036232016         2.9404327718         1.5394731502         3.3096368707         5.2581500365         3.6087120513
        0.5250000000         0.4817536741         2.9312813465         1.5522347845         3.3377075228         5.5905866576         3.4520059518
        0.5300000000         0.4595798606         2.9220332333         1.5420254771         3.3581225424         5.3246373607         3.2931194913
        0.5350000000         0.4371157667         2.9126952026         1.5394731502         3.3708819297         5.2581500365         3.1321530259
        0.5400000000         0.4143755810         2.9032740195         1.5267115159         3.3912969494         4.9257134153         2.9692082256
        0.5450000000         0.3913736668         2.8937764385         1.5394731502         3.4117119691         5.2581500365         2.8043880097
        0.5500000000         0.3681245527         2.8842091977         1.5165022085         3.4244713564         4.6597641184         2.6377964823
        0.5550000000         0.3446429232         2.8745790138         1.5369208233         3.4576457633         5.1916627122         2.4695388660
        0.5600000000         0.3209436098         2.8648925771         1.5216068622         3.4704051506         4.7927387669         2.2997214361
        0.5650000000         0.2970415816         2.8551565466         1.5369208233         3.4959239252         5.1916627122         2.1284514528
        0.5700000000         0.2729519355         2.8453775457         1.5113975548         3.5086833125         4.5267894700         1.9558370939
        0.5750000000         0.2486898872         2.8355621575         1.5216068622         3.5342020871         4.7927387669         1.7819873865
        0.5800000000         0.2242707609         2.8257169211         1.5062929011         3.5469614744         4.3938148215         1.6070121376
        0.5850000000         0.1997099805         2.8158483277         1.5139498816         3.5622727392         4.5932767942         1.4310218654
        0.5900000000         0.1750230590         2.8059628165         1.4935312668         3.5750321265         4.0613782004         1.2541277291
        0.5950000000         0.1502255891         2.7960667717         1.5088452279         3.5979990236         4.4603021457         1.0764414588
        0.6000000000         0.1253332336         2.7861665191         1.4884266131         3.6056546560         3.9284035519         0.8980752851
        0.6050000000         0.1003617149         2.7762683227         1.4884266131         3.6260696756         3.9284035519         0.7191418678
        0.6100000000         0.0753268055         2.7663783822         1.4884266131         3.6464846953         3.9284035519         0.5397542250
        0.6150000000         0.0502443182         2.7565028302         1.4858742862         3.6541403277         3.8619162277         0.3600256619
        0.6200000000         0.0251300954         2.7466477294         1.4756649788         3.6694515924         3.5959669308         0.1800696989
        0.6250000000         0.0000000000         2.5000000000         1.4756649788         3.6898666121         3.5959669308         0.0000000000
        0.6300000000        -0.0251300954         2.2496043062         1.4731126519         3.7026259994         3.5294796066        -0.1800696989
        0.6350000000        -0.0502443182         2.2392131202         1.4654556714         3.7179372642         3.3300176339        -0.3600256619
        0.6400000000        -0.0753268055         2.2288035189         1.4271707685         3.7255928965         2.3327077705        -0.5397542250
        0.6450000000        -0.1003617149         2.2183819382         1.4118568074         3.7409041613         1.9337838251        -0.7191418678
        0.6500000000        -0.1253332336         2.2079548809         1.3659149240         3.7383522838         0.7370119891        -0.8980752851
        0.6550000000        -0.1502255891         2.1975289127         1.3327346748         3.7485597937        -0.1273232259        -1.0764414588
        0.6600000000        -0.1750230590         2.1871106594         1.3378393285         3.7460079162         0.0056514226        -1.2541277291
        0.6650000000        -0.1997099805         2.1767068036         1.3480486360         3.7460079162         0.2716007195        -1.4310218654
