% f=4.10Hz  n_cycles=5  N_total=243  dt=0.005000
% Amp=1.5000V  K_lin=5.741200
Time[s]              Vcmd[V]              Vc[V]                Vg[V]                Pot[V]               Omega[rad/s]         Omega_target[rad/s] 
        0.0000000000         0.0000000000         2.5000000000         1.3378393285         2.8273320310         0.0212759438         0.0000000000
        0.0050000000         0.1926741453         2.7666301437         1.3072114063         2.8196763986        -0.7765719470         1.1061808030
        0.0100000000         0.3821560885         2.8297868887         1.3454963091         2.8298839084         0.2207379164         2.1940345354
        0.0150000000         0.5653065156         2.8902047065         1.3301823480         2.8196763986        -0.1781860289         3.2455377675
        0.0200000000         0.7390910123         2.9469785168         1.3429439823         2.8298839084         0.1542505922         4.2432693199
        0.0250000000         0.9006303380         2.9992811946         1.3276300211         2.8171245211        -0.2446733532         5.1706988965
        0.0300000000         1.0472481285         3.0463698841         1.3327346748         2.8196763986        -0.1116987047         6.0124609553
        0.0350000000         1.1765152379         3.0875908284         1.3378393285         2.8247801535         0.0212759438         6.7546092838
        0.0400000000         1.2862899843         3.1223830028         1.3480486360         2.8324357859         0.2872252407         7.3848480578
        0.0450000000         1.3747536329         3.1502808009         1.3378393285         2.8324357859         0.0212759438         7.8927355570
        0.0500000000         1.4404405285         3.1709159764         1.3352870017         2.8196763986        -0.0452113805         8.2698571623
        0.0550000000         1.4822623787         3.1840190030         1.3480486360         2.8324357859         0.2872252407         8.5099647684
        0.0600000000         1.4995262839         3.1894199754         1.3327346748         2.8222282761        -0.1116987047         8.6090803013
        0.0650000000         1.4919462180         3.1870491371         1.3403916554         2.8298839084         0.0877632680         8.5655616267
        0.0700000000         1.4596477665         3.1769370891         1.3378393285         2.8298839084         0.0212759438         8.3801297569
        0.0750000000         1.4031660462         3.1592146983         1.3352870017         2.8222282761        -0.0452113805         8.0558569047
        0.0800000000         1.3234368397         3.1341126998         1.3378393285         2.8349876633         0.0212759438         7.5981155838
        0.0850000000         1.2217810906         3.1019609491         1.3327346748         2.8222282761        -0.1116987047         7.0144895974
        0.0900000000         1.0998830193         3.0631872542         1.3301823480         2.8247801535        -0.1781860289         6.3146483906
        0.0950000000         0.9597622184         3.0183156779         1.3403916554         2.8324357859         0.0877632680         5.5101868484
        0.1000000000         0.8037401925         2.9679641639         1.3250776943         2.8247801535        -0.3111606774         4.6144331930
        0.1050000000         0.6344018956         2.9128413005         1.3888858657         2.8273320310         1.3510224283         3.6422281632
        0.1100000000         0.4545529044         2.8537419894         1.5573394382         2.8528508056         5.7391858272         2.6096791350
        0.1150000000         0.2671729354         2.7915417487         1.5522347845         2.8758177027         5.6062111788         1.5338932567
        0.1200000000         0.0753664773         2.7271893370         1.5369208233         2.8936808449         5.2072872334         0.4326940193
        0.1250000000        -0.1176886436         2.2368168174         1.5139498816         2.9115439871         4.6089013154        -0.6756740406
        0.1300000000        -0.3087939132         2.1811054817         1.4935312668         2.9319590068         4.0770027216        -1.7728476142
        0.1350000000        -0.4947831223         2.1263759233         1.4731126519         2.9447183941         3.5451041278        -2.8406488617
        0.1400000000        -0.6725748241         2.0735753369         1.4501417102         2.9625815363         2.9467182097        -3.8613865803
        0.1450000000        -0.8392233872         2.0236434085         1.4067521537         2.9574777814         1.8164336979        -4.8181493103
        0.1500000000        -0.9919677980         1.9774932127         1.3888858657         2.9778928011         1.3510224283        -5.6950855218
        0.1550000000        -1.1282774056         1.9359907140         1.3633625971         2.9753409236         0.6861491860        -6.4776662410
        0.1600000000        -1.2458938488         1.8999334805         1.3429439823         2.9727890461         0.1542505922        -7.1529257647
        0.1650000000        -1.3428684725         1.8700294259         1.3199730405         2.9651334138        -0.4441353258        -7.7096764742
        0.1700000000        -1.4175946128         1.8468765665         1.3352870017         2.9753409236        -0.0452113805        -8.1386941908
        0.1750000000        -1.4688342159         1.8309448819         1.3378393285         2.9753409236         0.0212759438        -8.4328710005
        0.1800000000        -1.4957383504         1.8225613756         1.3378393285         2.9753409236         0.0212759438        -8.5873330173
        0.1850000000        -1.4978612717         1.8218993195         1.3454963091         2.9804446785         0.2207379164        -8.5995211330
        0.1900000000        -1.4751678075         1.8289724326         1.3378393285         2.9778928011         0.0212759438        -8.4692334164
        0.1950000000        -1.4280339404         1.8436344163         1.3352870017         2.9753409236        -0.0452113805        -8.1986284587
        0.2000000000        -1.3572405787         1.8655838809         1.3352870017         2.9753409236        -0.0452113805        -7.7921896104
        0.2050000000        -1.2639606182         1.8943743039         1.3301823480         2.9727890461        -0.1781860289        -7.2566507014
        0.2100000000        -1.1497395102         1.9294283199         1.3429439823         2.9804446785         0.1542505922        -6.6008844760
        0.2150000000        -1.0164696562         1.9700553889         1.3327346748         2.9676852912        -0.1116987047        -5.8357555902
        0.2200000000        -0.8663590551         2.0154717596         1.3352870017         2.9753409236        -0.0452113805        -4.9739406073
        0.2250000000        -0.7018947214         2.0648216277         1.3097637331         2.9727890461        -0.7100846227        -4.0297179744
        0.2300000000        -0.5258014803         2.1171984798         1.1336531800         2.9625815363        -5.2977099944        -3.0187314586
        0.2350000000        -0.3409968235         2.1716657764         1.1311008532         2.9396146392        -5.3641973186        -1.9577309629
        0.2400000000        -0.1505425723         2.2272763264         1.1591764486         2.9140958646        -4.6328367521        -0.8642950160
        0.2450000000         0.0424058502         2.5000000000         1.1795950634         2.8962327224        -4.1009381583         0.2434604669
        0.2500000000         0.2346516976         2.7806798808         1.2025660052         2.8911289674        -3.5025522403         1.3471823260
        0.2550000000         0.4230098639         2.8433166238         1.2229846200         2.8707139478        -2.9706536464         2.4285842303
        0.2600000000         0.6043596536         2.9030094675         1.2382985811         2.8630583154        -2.5717297011         3.4697496431
        0.2650000000         0.7756964852         2.9588698161         1.2765834840         2.8656101929        -1.5744198377         4.4534286609
        0.2700000000         0.9341816707         3.0100885585         1.3021067526         2.8528508056        -0.9095465954         5.3633238080
        0.2750000000         1.0771894466         3.0559420293         1.3250776943         2.8528508056        -0.3111606774         6.1843600511
        0.2800000000         1.2023504773         3.0957965526         1.3557056165         2.8579545605         0.4866872133         6.9029345603
        0.2850000000         1.3075911098         3.1291118480         1.3454963091         2.8554026830         0.2207379164         7.5071420796
        0.2900000000         1.3911677300         3.1554435370         1.3301823480         2.8502989281        -0.1781860289         7.9869721715
        0.2950000000         1.4516956505         3.1744449446         1.3429439823         2.8502989281         0.1542505922         8.3344750686
        0.3000000000         1.4881720520         3.1858683495         1.3429439823         2.8528508056         0.1542505922         8.5438933848
        0.3050000000         1.4999925978         3.1895657966         1.3403916554         2.8554026830         0.0877632680         8.6117575025
        0.3100000000         1.4869614466         3.1854895521         1.3480486360         2.8630583154         0.2872252407         8.5369430572
        0.3150000000         1.4492944969         3.1736922445         1.3352870017         2.8502989281        -0.0452113805         8.3206895657
        0.3200000000         1.3876158103         3.1543267085         1.3429439823         2.8579545605         0.1542505922         7.9665798898
        0.3250000000         1.3029472717         3.1276455145         1.3429439823         2.8605064379         0.1542505922         7.4804808760
        0.3300000000         1.1966916593         3.0940001366         1.3352870017         2.8528508056        -0.0452113805         6.8704461544
        0.3350000000         1.0706094034         3.0538396783         1.3429439823         2.8630583154         0.1542505922         6.1465827069
        0.3400000000         0.9267894196         3.0077090403         1.3429439823         2.8630583154         0.1542505922         5.3208834160
        0.3450000000         0.7676145002         2.9562463757         1.3301823480         2.8502989281        -0.1781860289         4.4070283684
        0.3500000000         0.5957218360         2.9001796335         1.3378393285         2.8528508056         0.0212759438         3.4201582046
        0.3550000000         0.4139593240         2.8403219534         1.4399324028         2.8656101929         2.6807689128         2.3766232708
        0.3600000000         0.2253383837         2.7775656269         1.5573394382         2.8885770900         5.7391858272         1.2937127284
        0.3650000000         0.0329840641         2.5000000000         1.5522347845         2.9038883547         5.6062111788         0.1893681090
        0.3700000000        -0.1599167314         2.2245513460         1.5241591891         2.9243033744         4.8748506123        -0.9181139384
        0.3750000000        -0.3501680458         2.1689746292         1.5037405742         2.9472702715         4.3429520185        -2.0103847845
        0.3800000000        -0.5346178181         2.1145873438         1.4603510177         2.9549259039         3.2126675066        -3.0693478171
        0.3850000000        -0.7102101066         2.0623365856         1.4501417102         2.9676852912         2.9467182097        -4.0774582641
        0.3900000000        -0.8740357195         2.0131578917         1.4297230954         2.9855484334         2.4148196159        -5.0180138728
        0.3950000000        -1.0233804137         1.9679557899         1.3990951731         2.9855484334         1.6169717252        -5.8754316309
        0.4000000000        -1.1557698642         1.9275830671         1.3582579434         2.9906521883         0.5531745376        -6.6355059441
        0.4050000000        -1.2690106585         1.8928194132         1.3557056165         2.9932040658         0.4866872133        -7.2856439926
        0.4100000000        -1.3612266368         1.8643502963         1.3301823480         2.9932040658        -0.1781860289        -7.8150743673
        0.4150000000        -1.4308899759         1.8427470860         1.3250776943         2.9932040658        -0.3111606774        -8.2150255294
        0.4200000000        -1.4768465018         1.8284495249         1.3301823480         2.9881003109        -0.1781860289        -8.4788711361
        0.4250000000        -1.4983348124         1.8217516299         1.3506009628         3.0008596982         0.3537125649        -8.6022398252
        0.4300000000        -1.4949988921         1.8227919651         1.3352870017         2.9906521883        -0.0452113805        -8.5830876390
        0.4350000000        -1.4668940097         1.8315489736         1.3378393285         2.9932040658         0.0212759438        -8.4217318888
        0.4400000000        -1.4144858038         1.8478417070         1.3327346748         2.9881003109        -0.1116987047        -8.1208458970
        0.4450000000        -1.3386425672         1.8713359003         1.3429439823         3.0008596982         0.1542505922        -7.6854147067
        0.4500000000        -1.2406208614         1.9015549517         1.3352870017         2.9932040658        -0.0452113805        -7.1226524895
        0.4550000000        -1.1220446984         1.9378950416         1.3429439823         2.9983078207         0.1542505922        -6.4418830222
        0.4600000000        -0.9848786336         1.9796434008         1.3327346748         2.9855484334        -0.1116987047        -5.6543852114
        0.4650000000        -0.8313952181         2.0259986277         1.3046590794         2.9881003109        -0.8430592712        -4.7732062262
        0.4700000000        -0.6641373466         2.0760919695         1.1106822383         2.9727890461        -5.8960959124        -3.8129453341
        0.4750000000        -0.4858761273         2.1290085871         1.1234438726         2.9472702715        -5.5636592913        -2.7895120220
        0.4800000000        -0.2995649708         2.1838079983         1.1617287755         2.9370627617        -4.5663494279        -1.7198624102
        0.4850000000        -0.1082906578         2.2395431006         1.1693857560         2.9115439871        -4.3668874552        -0.6217183247
        0.4900000000         0.0847778017         2.7303633576         1.2025660052         2.9064402322        -3.5025522403         0.4867263153
        0.4950000000         0.2764416728         2.7946338029         1.2178799663         2.8809214576        -3.1036282949         1.5871069321
        0.5000000000         0.4635254916         2.8567042300         1.2357462543         2.8681620703        -2.6382170253         2.6611925522
        0.5050000000         0.6429296757         2.9156292528         1.2638218497         2.8681620703        -1.9068564588         3.6911878539
        0.5100000000         0.8116818782         2.9705371296         1.2918974451         2.8630583154        -1.1754958923         4.6600279991
        0.5150000000         0.9669862329         3.0206370491         1.3225253674         2.8630583154        -0.3776480016         5.5516613606
        0.5200000000         1.1062696760         3.0652247542         1.3429439823         2.8630583154         0.1542505922         6.3513154641
        0.5250000000         1.2272245761         3.1036868133         1.3429439823         2.8630583154         0.1542505922         7.0457417365
        0.5300000000         1.3278469670         3.1355038103         1.3403916554         2.8605064379         0.0877632680         7.6234350069
        0.5350000000         1.4064697489         3.1602526807         1.3276300211         2.8554026830        -0.2446733532         8.0748241226
        0.5400000000         1.4617903092         3.1776083807         1.3429439823         2.8554026830         0.1542505922         8.3924305231
        0.5450000000         1.4928921033         3.1873450328         1.3403916554         2.8630583154         0.0877632680         8.5709921435
        0.5500000000         1.4992598405         3.1893366542         1.3352870017         2.8630583154        -0.0452113805         8.6075505966
        0.5550000000         1.4807880210         3.1835575399         1.3582579434         2.8707139478         0.5531745376         8.5015001861
        0.5600000000         1.4377826835         3.1700823389         1.3327346748         2.8579545605        -0.1116987047         8.2545979427
        0.5650000000         1.3709563354         3.1490858310         1.3378393285         2.8630583154         0.0212759438         7.8709345129
        0.5700000000         1.2814161475         3.1208423825         1.3403916554         2.8630583154         0.0877632680         7.3568663863
        0.5750000000         1.1706456110         3.0857250246         1.3327346748         2.8630583154        -0.1116987047         6.7209105819
        0.5800000000         1.0404799587         3.0442040688         1.3352870017         2.8630583154        -0.0452113805         5.9736035390
        0.5850000000         0.8930757596         2.9968451321         1.3301823480         2.8579545605        -0.1781860289         5.1273265508
        0.5900000000         0.7308751886         2.9443064109         1.3403916554         2.8656101929         0.0877632680         4.1961006327
        0.5950000000         0.5565655654         2.8873349946         1.4016475000         2.8630583154         1.6834590494         3.1953542238
        0.6000000000         0.3730348307         2.8267619705         1.5649964188         2.8911289674         5.9386477999         2.1416675703
        0.6050000000         0.1833236999         2.7634960301         1.5547871113         2.8987845998         5.6726985030         1.0524980259
        0.6100000000        -0.0094247159         2.5000000000         1.5343684965         2.9294071293         5.1407999092        -0.0541091792
        0.6150000000        -0.2020169842         2.2122977638         1.5037405742         2.9472702715         4.3429520185        -1.1598199100
        0.6200000000        -0.3912622594         2.1569010657         1.4884266131         2.9676852912         3.9440280731        -2.2463148839
        0.6250000000        -0.5740251485         2.1029017575         1.4577986908         2.9829965560         3.1461801824        -3.2955931828
        0.6300000000        -0.7472776580         2.0512459815         1.4246184417         2.9829965560         2.2818449675        -4.2902704902
        0.6350000000        -0.9081493611         2.0028641869         1.4118568074         2.9932040658         1.9494083463        -5.2138671118
        0.6400000000        -1.0539749547         1.9586513531         1.3863335388         3.0034115756         1.2845351041        -6.0510810099
        0.6450000000        -1.1823384180         1.9194460573         1.3557056165         3.0110672080         0.4866872133        -6.7880413253
        0.6500000000        -1.2911130405         1.8860090893         1.3148683868         3.0008596982        -0.5771099743        -7.4125381882
        0.6550000000        -1.3784966574         1.8590025093         1.3352870017         3.0034115756        -0.0452113805        -7.9142250094
        0.6600000000        -1.4430415074         1.8389701917         1.3429439823         3.0034115756         0.1542505922        -8.2847899022
        0.6650000000        -1.4836782192         1.8263209591         1.3403916554         3.0136190855         0.0877632680        -8.5180933918
