% f=1.40Hz  n_cycles=5  N_total=714  dt=0.005000
% Amp=2.0000V  K_lin=4.959600
Time[s]              Vcmd[V]              Vc[V]                Vg[V]                Pot[V]               Omega[rad/s]         Omega_target[rad/s] 
        0.0000000000         0.0000000000         2.5000000000         1.3429439823         1.0997109912         0.1386260710         0.0000000000
        0.0050000000         0.0879362366         2.7421620228         1.3454963091         1.0895034814         0.2051133952         0.4361285592
        0.0100000000         0.1757023931         2.7696125334         1.3327346748         1.0895034814        -0.1273232259         0.8714135888
        0.0150000000         0.2631287182         2.7969661241         1.3429439823         1.0997109912         0.1386260710         1.3050131907
        0.0200000000         0.3500461180         2.8241697628         1.3352870017         1.0946072363        -0.0608359017         1.7360887266
        0.0250000000         0.4362864828         2.8511706543         1.3429439823         1.1022628687         0.1386260710         2.1638064401
        0.0300000000         0.5216830126         2.8779163434         1.3429439823         1.0997109912         0.1386260710         2.5873390692
        0.0350000000         0.6060705393         2.9043548181         1.3403916554         1.1022628687         0.0721387468         3.0058674465
        0.0400000000         0.6892858463         2.9304346127         1.3429439823         1.0997109912         0.1386260710         3.4185820836
        0.0450000000         0.7711679846         2.9561049093         1.3761242314         1.1022628687         1.0029612860         3.8246847362
        0.0500000000         0.8515585831         2.9813156392         1.4399324028         1.1073666236         2.6651443916         4.2233899489
        0.0550000000         0.9303021562         3.0060175829         1.3914381925         1.1099185011         1.4018852313         4.6139265737
        0.0600000000         1.0072464033         3.0301624688         1.4093044805         1.1150222560         1.8672965009         4.9955392617
        0.0650000000         1.0822425043         3.0537030705         1.4399324028         1.1252297658         2.6651443916         5.3674899241
        0.0700000000         1.1551454068         3.0765933020         1.4144091342         1.1303335207         2.0002711494         5.7290591598
        0.0750000000         1.2258141073         3.0987883113         1.4552463639         1.1354372756         3.0640683370         6.0795476466
        0.0800000000         1.2941119231         3.1202445715         1.4552463639         1.1481966629         3.0640683370         6.4182774940
        0.0850000000         1.3599067574         3.1409199697         1.4501417102         1.1660598052         2.9310936885         6.7445935542
        0.0900000000         1.4230713544         3.1607738935         1.4731126519         1.1711635601         3.5294796066         7.0578646894
        0.0950000000         1.4834835455         3.1797673140         1.4629033445         1.1762673150         3.2635303097         7.3574849922
        0.1000000000         1.5410264856         3.1978628663         1.4782173056         1.1941304572         3.6624542550         7.6428749577
        0.1050000000         1.5955888791         3.2150249271         1.4909789399         1.2119935994         3.9948908762         7.9134826047
        0.1100000000         1.6470651953         3.2312196879         1.4858742862         1.2298567416         3.8619162277         8.1687845424
        0.1150000000         1.6953558722         3.2464152259         1.4986359205         1.2451680064         4.1943528488         8.4082869836
        0.1200000000         1.7403675093         3.2605815698         1.5113975548         1.2630311486         4.5267894700         8.6315266993
        0.1250000000         1.7820130484         3.2736907628         1.5062929011         1.2706867810         4.3938148215         8.8380719147
        0.1300000000         1.8202119414         3.2857169210         1.5139498816         1.2936536781         4.5932767942         9.0275231444
        0.1350000000         1.8548903067         3.2966362876         1.5216068622         1.3064130654         4.7927387669         9.1995139650
        0.1400000000         1.8859810718         3.3064272827         1.5394731502         1.3344837175         5.2581500365         9.3537117236
        0.1450000000         1.9134241031         3.3150705488         1.5343684965         1.3446912273         5.1251753880         9.4898181818
        0.1500000000         1.9371663223         3.3225489916         1.5471301308         1.3727618793         5.4576120091         9.6075700919
        0.1550000000         1.9571618087         3.3288478159         1.5522347845         1.3931768990         5.5905866576         9.7067397062
        0.1600000000         1.9733718884         3.3339545573         1.5649964188         1.4161437961         5.9230232787         9.7871352178
        0.1650000000         1.9857652091         3.3378591076         1.5675487456         1.4391106933         5.9895106030         9.8486011312
        0.1700000000         1.9943178005         3.3405537374         1.5573394382         1.4518700806         5.7235613061         9.8910185635
        0.1750000000         1.9990131207         3.3420331115         1.5905196873         1.4875963650         6.5878965210         9.9143054736
        0.1800000000         1.9998420884         3.3422943007         1.5777580530         1.5003557523         6.2554598999         9.9184168217
        0.1850000000         1.9968031002         3.3413367877         1.5777580530         1.5360820367         6.2554598999         9.9033446558
        0.1900000000         1.9899020340         3.3391624686         1.6058336485         1.5616008113         6.9868204664         9.8691181276
        0.1950000000         1.9791522372         3.3357756484         1.5879673605         1.5820158310         6.5214091968         9.8158034356
        0.2000000000         1.9645745015         3.3311830324         1.5930720142         1.6151902379         6.6543838452         9.7435036974
        0.2050000000         1.9461970220         3.3253937113         1.6185952828         1.6330533802         7.3192570875         9.6523587501
        0.2100000000         1.9240553432         3.3184191428         1.5905196873         1.6509165224         6.5878965210         9.5425448800
        0.2150000000         1.8981922900         3.3102731268         1.6160429559         1.6917465617         7.2527697633         9.4142744814
        0.2200000000         1.8686578849         3.3009717764         1.6083859753         1.7096097039         7.0533077906         9.2677956460
        0.2250000000         1.8355092514         3.2905334838         1.6083859753         1.7300247236         7.0533077906         9.1033916831
        0.2300000000         1.7988105031         3.2789788817         1.5956243410         1.7606472531         6.7208711695         8.9213805713
        0.2350000000         1.7586326204         3.2663307998         1.6236999365         1.7963735375         7.4522317359         8.7221143440
        0.2400000000         1.7150533124         3.2526142168         1.6058336485         1.8116848023         6.9868204664         8.5059784081
        0.2450000000         1.6681568672         3.2378562082         1.6211476096         1.8448592093         7.3857444117         8.2733907987
        0.2500000000         1.6180339887         3.2220858891         1.6236999365         1.8780336162         7.4522317359         8.0248013706
        0.2550000000         1.5647816212         3.2053343540         1.6160429559         1.9010005134         7.2527697633         7.7606909283
        0.2600000000         1.5085027615         3.1876346116         1.6185952828         1.9239674105         7.3192570875         7.4815702958
        0.2650000000         1.4493062604         3.1690215163         1.6134906290         1.9571418174         7.1862824390         7.1879793290
        0.2700000000         1.3873066116         3.1495316958         1.6134906290         1.9750049597         7.1862824390         6.8804858710
        0.2750000000         1.3226237306         3.1292034756         1.6083859753         1.9979718568         7.0533077906         6.5596846545
        0.2800000000         1.2553827226         3.1080767993         1.6109383022         2.0336981412         7.1197951148         6.2261961509
        0.2850000000         1.1857136403         3.0861931474         1.6083859753         2.0617687933         7.0533077906         5.8806653705
        0.2900000000         1.1137512330         3.0635954514         1.6058336485         2.0821838129         6.9868204664         5.5237606151
        0.2950000000         1.0396346852         3.0403280065         1.6007289948         2.1102544650         6.8538458179         5.1561721849
        0.3000000000         0.9635073482         3.0164363810         1.6109383022         2.1357732396         7.1197951148         4.7786110441
        0.3050000000         0.8855164621         2.9919673243         1.5981766679         2.1791551564         6.7873584937         4.3918074453
        0.3100000000         0.8058128714         2.9669686718         1.6007289948         2.1944664211         6.8538458179         3.9965095171
        0.3150000000         0.7245507334         2.9414892488         1.6058336485         2.2148814408         6.9868204664         3.5934818174
        0.3200000000         0.6418872196         2.9155787721         1.5777580530         2.2480558478         6.2554598999         3.1835038544
        0.3250000000         0.5579822121         2.8892877509         1.6007289948         2.2761264998         6.8538458179         2.7673685790
        0.3300000000         0.4729979940         2.8626673858         1.5701010725         2.2888858871         6.0559979272         2.3458808513
        0.3350000000         0.3870989361         2.8357694672         1.5701010725         2.3220602941         6.0559979272         1.9198558835
        0.3400000000         0.3004511782         2.8086462729         1.5879673605         2.3501309461         6.5214091968         1.4901176636
        0.3450000000         0.2132223086         2.7813504650         1.5777580530         2.3782015982         6.2554598999         1.0574973615
        0.3500000000         0.1255810391         2.7539349869         1.5471301308         2.3858572306         5.4576120091         0.6228317213
        0.3550000000         0.0376968794         2.5000000000         1.5726533993         2.4139278826         6.1224852514         0.1869614432
        0.3600000000        -0.0502601909         2.2699125625         1.5522347845         2.4394466572         5.5905866576        -0.2492704427
        0.3650000000        -0.1381200514         2.2376397350         1.5139498816         2.4496541670         4.5932767942        -0.6850202071
        0.3700000000        -0.2257127697         2.2057040609         1.4705603251         2.4624135543         3.4629922823        -1.1194450528
        0.3750000000        -0.3128689301         2.1741592425         1.4450370565         2.4879323289         2.7981190401        -1.5517047456
        0.3800000000        -0.3994199610         2.1430572349         1.4169614611         2.4879323289         2.0667584736        -1.9809632387
        0.3850000000        -0.4851984616         2.1124482415         1.3888858657         2.5032435937         1.3353979071        -2.4063902901
        0.3900000000        -0.5700385249         2.0823807126         1.3531532897         2.5006917162         0.4045753679        -2.8271630683
        0.3950000000        -0.6537760593         2.0529013488         1.3276300211         2.4981398388        -0.2602978743        -3.2424677438
        0.4000000000        -0.7362491054         2.0240551064         1.3403916554         2.4981398388         0.0721387468        -3.6515010630
        0.4050000000        -0.8172981495         1.9958852063         1.3378393285         2.4981398388         0.0056514226        -4.0534719021
        0.4100000000        -0.8967664322         1.9684331435         1.3403916554         2.5032435937         0.0721387468        -4.4476027970
        0.4150000000        -0.9745002515         1.9417386994         1.2816881377         2.4955879613        -1.4570697104        -4.8331314471
        0.4200000000        -1.0503492599         1.9158399547         1.2331939274         2.4853804515        -2.7203288707        -5.2093121895
        0.4250000000        -1.1241667557         1.8907733029         1.2893451183         2.4853804515        -1.2576077377        -5.5754174416
        0.4300000000        -1.1958099661         1.8665734651         1.2434032349         2.4751729416        -2.4543795738        -5.9307391079
        0.4350000000        -1.2651403238         1.8432735046         1.2459555617         2.4649654318        -2.3878922496        -6.2745899500
        0.4400000000        -1.3320237349         1.8209048414         1.2434032349         2.4649654318        -2.4543795738        -6.6063049155
        0.4450000000        -1.3963308380         1.7994972676         1.1974613514         2.4471022896        -3.6511514099        -6.9252424241
        0.4500000000        -1.4579372548         1.7790789615         1.2153276394         2.4292391474        -3.1857401403        -7.2307856091
        0.4550000000        -1.5167238306         1.7596765021         1.1923566977         2.4241353924        -3.7841260584        -7.5223435101
        0.4600000000        -1.5725768643         1.7413148829         1.2025660052         2.4139278826        -3.5181767615        -7.7993522160
        0.4650000000        -1.6253883289         1.7240175251         1.1719380829         2.3858572306        -4.3160246522        -8.0612759558
        0.4700000000        -1.6750560801         1.7078062907         1.1770427366         2.3782015982        -4.1830500037        -8.3076081348
        0.4750000000        -1.7214840540         1.6927014940         1.1770427366         2.3679940883        -4.1830500037        -8.5378723143
        0.4800000000        -1.7645824529         1.6787219133         1.1693857560         2.3450271912        -4.3825119764        -8.7516231333
        0.4850000000        -1.8042679187         1.6658848013         1.1515194680         2.3373715588        -4.8479232460        -8.9484471698
        0.4900000000        -1.8404636947         1.6542058954         1.1464148143         2.3067490293        -4.9808978944        -9.1279637404
        0.4950000000        -1.8730997735         1.6436994262         1.1285485263         2.2863340097        -5.4463091640        -9.2898256366
        0.5000000000        -1.9021130326         1.6343781259         1.1464148143         2.2710227449        -4.9808978944        -9.4337197964
        0.5050000000        -1.9274473566         1.6262532357         1.1183392189         2.2480558478        -5.7122584609        -9.5593679097
        0.5100000000        -1.9490537456         1.6193345127         1.1106822383         2.2276408281        -5.9117204336        -9.6665269565
        0.5150000000        -1.9668904100         1.6136302349         1.1055775846         2.1995701761        -6.0446950821        -9.7549896774
        0.5200000000        -1.9809228514         1.6091472065         1.1081299115         2.1893626662        -5.9782077578        -9.8245849738
        0.5250000000        -1.9911239292         1.6058907621         1.0902636235         2.1561882593        -6.4436190274        -9.8751782393
        0.5300000000        -1.9974739132         1.6038647694         1.1106822383         2.1332213621        -5.9117204336        -9.9066716200
        0.5350000000        -1.9999605217         1.6030716314         1.0800543160         2.1051507101        -6.7095683243        -9.9190042035
        0.5400000000        -1.9985789453         1.6035122885         1.0698450086         2.0821838129        -6.9755176212        -9.9121521370
        0.5450000000        -1.9933318561         1.6051862182         1.0877112966         2.0541131609        -6.5101063517        -9.8861286734
        0.5500000000        -1.9842294026         1.6080914356         1.0519787206         2.0285943863        -7.4409288908        -9.8409841453
        0.5550000000        -1.9712891903         1.6122244915         1.0851589698         2.0158349990        -6.5765936759        -9.7768058682
        0.5600000000        -1.9545362471         1.6175804709         1.0800543160         1.9775568371        -6.7095683243        -9.6937179713
        0.5650000000        -1.9340029755         1.6241529898         1.0341124326         1.9545899400        -7.9063401604        -9.5918811574
        0.5700000000        -1.9097290895         1.6319341916         1.0749496623         1.9239674105        -6.8425429728        -9.4714923923
        0.5750000000        -1.8817615379         1.6409147424         1.0647403549         1.9035523908        -7.1084922697        -9.3327845234
        0.5800000000        -1.8501544137         1.6510838259         1.0443217401         1.8805854937        -7.6403908635        -9.1760258300
        0.5850000000        -1.8149688491         1.6624291363         1.0698450086         1.8525148416        -6.9755176212        -9.0015195039
        0.5900000000        -1.7762728976         1.6749368720         1.0468740669         1.8142366797        -7.5739035393        -8.8096030631
        0.5950000000        -1.7341414023         1.6885917271         1.0417694132         1.7887179052        -7.7068781877        -8.6006476990
        0.6000000000        -1.6886558510         1.7033768828         1.0545310475         1.7606472531        -7.3744415666        -8.3750575586
        0.6050000000        -1.6399042187         1.7192739977         1.0417694132         1.7325766011        -7.7068781877        -8.1332689628
        0.6100000000        -1.5879807973         1.7362631974         1.0519787206         1.7096097039        -7.4409288908        -7.8757495623
        0.6150000000        -1.5329860136         1.7543230633         1.0698450086         1.6891946843        -6.9755176212        -7.6029974331
        0.6200000000        -1.4750262347         1.7734306212         1.0392170863         1.6483646449        -7.7733655120        -7.3155401137
        0.6250000000        -1.4142135624         1.7935613279         1.0672926818         1.6305015027        -7.0420049455        -7.0139335839
        0.6300000000        -1.3506656162         1.8146890590         1.0494263938         1.5973270957        -7.5074162151        -6.6987611903
        0.6350000000        -1.2845053064         1.8367860944         1.0417694132         1.5718083211        -7.7068781877        -6.3706325174
        0.6400000000        -1.2158605954         1.8598231046         1.0723973355         1.5462895465        -6.9090302970        -6.0301822089
        0.6450000000        -1.1448642512         1.8837691363         1.0545310475         1.5156670170        -7.3744415666        -5.6780687402
        0.6500000000        -1.0716535900         1.9085915971         1.0647403549         1.4927001199        -7.1084922697        -5.3149731448
        0.6550000000        -0.9963702107         1.9342562412         1.0877112966         1.4748369777        -6.5101063517        -4.9415976969
        0.6600000000        -0.9191597212         1.9607271543         1.0621880280         1.4442144482        -7.1749795939        -4.5586645535
        0.6650000000        -0.8401714568         1.9879667393         1.0826066429         1.4161437961        -6.6430810001        -4.1669143573
