% f=4.20Hz  n_cycles=5  N_total=238  dt=0.005000
% Amp=400.00deg/s
Time[s]              OmegaCmd[deg/s]      Vc[V]                Vg[V]                Pot[V]               Omega[rad/s]         Omega_target[rad/s] 
        0.0000000000         0.0000000000         2.4974092728         1.3378393285         0.9619096084        -0.0026594930         0.0000000000
        0.0050000000        52.6257436369         2.7581471017         1.3301823480         0.9568058535        -0.2021214656         0.9184924978
        0.0100000000       104.3366025160         2.8197158772         1.3378393285         0.9619096084        -0.0026594930         1.8210172442
        0.0150000000       154.2335969110         2.8770070169         1.3327346748         0.9568058535        -0.1356341414         2.6918840833
        0.0200000000       201.4492806543         2.9294944052         1.3352870017         0.9644614859        -0.0691468172         3.5159532232
        0.0250000000       245.1628214612         2.9767923666         1.3352870017         0.9568058535        -0.0691468172         4.2788984380
        0.0300000000       284.6142708837         3.0185917583         1.3327346748         0.9542539761        -0.1356341414         4.9674561251
        0.0350000000       319.1177758154         3.0546070820         1.3378393285         0.9619096084        -0.0026594930         5.5696558896
        0.0400000000       348.0735018678         3.0845458900         1.3429439823         0.9721171183         0.1303151555         6.0750286465
        0.0450000000       370.9780613339         3.1081052121         1.3327346748         0.9542539761        -0.1356341414         6.4747886229
        0.0500000000       387.4332644515         3.1249922774         1.3378393285         0.9619096084        -0.0026594930         6.7619860964
        0.0550000000       397.1530418279         3.1349604313         1.3352870017         0.9568058535        -0.0691468172         6.9316282142
        0.0600000000       399.9684176815         3.1378475300         1.3429439823         0.9695652408         0.1303151555         6.9807657925
        0.0650000000       395.8304474411         3.1336041415         1.3454963091         0.9695652408         0.1968024797         6.9085445875
        0.0700000000       384.8110686344         3.1223025288         1.3378393285         0.9644614859        -0.0026594930         6.7162201458
        0.0750000000       367.1018502736         3.1041235754         1.3352870017         0.9568058535        -0.0691468172         6.4071359774
        0.0800000000       343.0106624775         3.0793257906         1.3403916554         0.9568058535         0.0638278313         5.9866654297
        0.0850000000       312.9563242306         3.0482063563         1.3582579434         0.9644614859         0.5292391008         5.4621182728
        0.0900000000       277.4613223251         3.0110671861         1.3786765582         0.9619096084         1.0611376947         4.8426136215
        0.0950000000       237.1427280644         2.9681982948         1.4322754222         0.9797727506         2.4573715034         4.1389214019
        0.1000000000       192.7014696407         2.9198865335         1.4577986908         0.9797727506         3.1222447457         3.3632751187
        0.1050000000       144.9101466818         2.8664510187         1.4833219594         0.9925321379         3.7871179880         2.5291591791
        0.1100000000        94.5995988095         2.8082991542         1.4909789399         1.0078434027         3.9865799606         1.6510744703
        0.1150000000        42.6444617101         2.7459909766         1.4884266131         1.0282584224         3.9200926364         0.7442862646
        0.1200000000       -10.0520381773         2.3865017795         1.4705603251         1.0435696871         3.4546813668        -0.1754411627
        0.1250000000       -62.5737860161         2.2162989683         1.4577986908         1.0639847068         3.1222447457        -1.0921185914
        0.1300000000      -114.0077049880         2.1481082176         1.4450370565         1.0614328293         2.7898081246        -1.9898098247
        0.1350000000      -163.4596298945         2.0867369341         1.4297230954         1.0767440941         2.3908841792        -2.8529087358
        0.1400000000      -210.0698519845         2.0319310793         1.4169614611         1.0920553588         2.0584475581        -3.6664105763
        0.1450000000      -253.0280647652         1.9834526069         1.3863335388         1.0920553588         1.2605996673        -4.4161728301
        0.1500000000      -291.5874509686         1.9411692582         1.3812288851         1.0997109912         1.1276250189        -5.0891610769
        0.1550000000      -325.0776657732         1.9050967505         1.3608102703         1.1048147461         0.5957264251        -5.6736755924
        0.1600000000      -352.9164905740         1.8753946056         1.3327346748         1.0920553588        -0.1356341414        -6.1595547451
        0.1650000000      -374.6199546993         1.8523243677         1.3250776943         1.0920553588        -0.3350961141        -6.5383516532
        0.1700000000      -389.8107491146         1.8361843931         1.3378393285         1.0971591138        -0.0026594930        -6.8034810317
        0.1750000000      -398.2247858412         1.8272380522         1.3301823480         1.0895034814        -0.2021214656        -6.9503336760
        0.1800000000      -399.7157890562         1.8256518567         1.3352870017         1.1022628687        -0.0691468172        -6.9763565912
        0.1850000000      -394.2578380596         1.8314569005         1.3327346748         1.0971591138        -0.1356341414        -6.8810973759
        0.1900000000      -381.9458178987         1.8445417022         1.3352870017         1.0997109912        -0.0691468172        -6.6662120866
        0.1950000000      -362.9937698164         1.8646779291         1.3250776943         1.0971591138        -0.3350961141        -6.3354364475
        0.2000000000      -337.7311702008         1.8915736502         1.3250776943         1.0997109912        -0.3350961141        -5.8945209066
        0.2050000000      -306.5972027237         1.9249427792         1.3046590794         1.0895034814        -0.8669947079        -5.3511306649
        0.2100000000      -270.1331232484         1.9645752196         1.2638218497         1.0946072363        -1.9307918955        -4.7147124194
        0.2150000000      -228.9728502378         2.0103906469         1.2025660052         1.0792959716        -3.5264876770        -3.9963301343
        0.2200000000      -183.8319442486         2.0624602446         1.1770427366         1.0639847068        -4.1913609193        -3.2084726975
        0.2250000000      -135.4951680981         2.1209850109         1.1872520440         1.0461215646        -3.9254116223        -2.3648368039
        0.2300000000       -84.8028439688         2.1862259807         1.1923566977         1.0333621773        -3.7924369739        -1.4800888423
        0.2350000000       -32.6362446273         2.2583899466         1.2025660052         1.0206027900        -3.5264876770        -0.5696099242
        0.2400000000        20.0977272719         2.7181974366         1.2127753126         1.0052915252        -3.2605383801         0.3507715131
        0.2450000000        72.4823054509         2.7820650298         1.2204322931         0.9950840154        -3.0610764074         1.2650548796
        0.2500000000       123.6067977500         2.8420778522         1.2408509080         0.9797727506        -2.5291778136         2.1573455986
        0.2550000000       172.5824182724         2.8975919750         1.2740311571         0.9746689957        -1.6648425986         3.0121314299
        0.2600000000       218.5577386937         2.9481424084         1.2970020988         0.9721171183        -1.0664566806         3.8145521459
        0.2650000000       260.7334901204         2.9933798778         1.3123160600         0.9644614859        -0.6675327352         4.5506578728
        0.2700000000       298.3764581697         3.0330094619         1.3429439823         0.9746689957         0.1303151555         5.2076516055
        0.2750000000       330.8322297098         3.0667451813         1.3454963091         0.9746689957         0.1968024797         5.7741116802
        0.2800000000       357.5365696605         3.0942895470         1.3352870017         0.9695652408        -0.0691468172         6.2401903369
        0.2850000000       378.0252300719         3.1153399525         1.3378393285         0.9619096084        -0.0026594930         6.5977849204
        0.2900000000       391.9420209537         3.1296165289         1.3352870017         0.9721171183        -0.0691468172         6.8406787426
        0.2950000000       399.0450025445         3.1369005871         1.3327346748         0.9644614859        -0.1356341414         6.9646491580
        0.3000000000       399.2106913713         3.1370704971         1.3378393285         0.9670133634        -0.0026594930         6.9675409736
        0.3050000000       392.4362069773         3.1301233362         1.3429439823         0.9772208732         0.1303151555         6.8493039158
        0.3100000000       378.8393219979         3.1161754225         1.3352870017         0.9695652408        -0.0691468172         6.6119935049
        0.3150000000       358.6564147141         3.0954415636         1.3352870017         0.9695652408        -0.0691468172         6.2597353202
        0.3200000000       332.2383596783         3.0681996181         1.3454963091         0.9721171183         0.1968024797         5.7986532778
        0.3250000000       300.0444278522         3.0347518735         1.3786765582         0.9721171183         1.0611376947         5.2367631683
        0.3300000000       262.6343023012         2.9953964091         1.3812288851         0.9797727506         1.1276250189         4.5838333038
        0.3350000000       220.6583482514         2.9504195059         1.4144091342         0.9797727506         1.9919602338         3.8512146990
        0.3400000000       174.8463066604         2.9001148028         1.4501417102         0.9899802605         2.9227827730         3.0516437362
        0.3450000000       125.9946078621         2.8448276723         1.4858742862         1.0027396478         3.8536053122         2.1990207470
        0.3500000000        74.9525258343         2.7850161137         1.4960835936         1.0154990351         4.1195546091         1.3081683585
        0.3550000000        22.6074137928         2.7213142474         1.4858742862         1.0308102998         3.8536053122         0.3945738060
        0.3600000000       -30.1307222112         2.2620003175         1.4680079982         1.0461215646         3.3881940426        -0.5258803086
        0.3650000000       -82.3450435079         2.1895043027         1.4475893834         1.0512253195         2.8562954488        -1.4371921319
        0.3700000000      -133.1278178092         2.1239373694         1.4348277491         1.0639847068         2.5238588276        -2.3235187468
        0.3750000000      -181.5961998958         2.0650987786         1.4246184417         1.0767440941         2.2579095307        -3.1694515973
        0.3800000000      -226.9075796507         2.0127271710         1.4144091342         1.0920553588         1.9919602338        -3.9602843626
        0.3850000000      -268.2742306147         1.9666167271         1.3812288851         1.0869516039         1.1276250189        -4.6822686225
        0.3900000000      -304.9770044046         1.9266892148         1.3633625971         1.0895034814         0.6622137493        -5.3228528697
        0.3950000000      -336.3778329193         1.8930179280         1.3454963091         1.0869516039         0.1968024797        -5.8709007152
        0.4000000000      -361.9308209864         1.8658078054         1.3276300211         1.0920553588        -0.2686087899        -6.3168844907
        0.4050000000      -381.1917366069         1.8453428418         1.3327346748         1.0971591138        -0.1356341414        -6.6530508852
        0.4100000000      -393.8257338117         1.8319163346         1.3301823480         1.0895034814        -0.2021214656        -6.8735557341
        0.4150000000      -399.6131738712         1.8257610330         1.3429439823         1.0997109912         0.1303151555        -6.9745656184
        0.4200000000      -398.4534436573         1.8269948153         1.3403916554         1.0971591138         0.0638278313        -6.9543245077
        0.4250000000      -390.3667047755         1.8355934801         1.3378393285         1.1022628687        -0.0026594930        -6.8131842885
        0.4300000000      -375.4935430616         1.8513963170         1.3276300211         1.0946072363        -0.2686087899        -6.5535986464
        0.4350000000      -354.0925245330         1.8741433048         1.3174207137         1.0869516039        -0.5345580868        -6.1800804098
        0.4400000000      -326.5357002869         1.9035361428         1.3174207137         1.0895034814        -0.5345580868        -5.6991230953
        0.4450000000      -293.3021384890         1.9393099360         1.2893451183         1.0895034814        -1.2659186533        -5.1190880198
        0.4500000000      -254.9695958995         1.9812991103         1.2229846200         1.0818478490        -2.9945890832        -4.4500589409
        0.4550000000      -212.2044737227         2.0294806635         1.1795950634         1.0716403392        -4.1248735950        -3.7036667539
        0.4600000000      -165.7502323973         2.0839803798         1.1821473903         1.0588809519        -4.0583862708        -2.8928872913
        0.4650000000      -116.4144667313         2.1450329414         1.1846997172         1.0384659322        -3.9918989466        -2.0318157414
        0.4700000000       -65.0548660780         2.2128943044         1.1974613514         1.0206027900        -3.6594623254        -1.1354216075
        0.4750000000       -12.5643036313         2.3587831160         1.2076706589         1.0078434027        -3.3935130285        -0.2192884666
        0.4800000000        40.1446859405         2.7429323938         1.2204322931         0.9950840154        -3.0610764074         0.7006569468
        0.4850000000        92.1557706706         2.8054211378         1.2536125423         0.9721171183        -2.1967411924         1.6084216229
        0.4900000000       142.5647514853         2.8637850858         1.2689265034         0.9670133634        -1.7978172471         2.4882243107
        0.4950000000       190.4952814672         2.9174553856         1.2816881377         0.9568058535        -1.4653806260         3.3247698711
        0.5000000000       235.1141009170         2.9660188295         1.3021067526         0.9670133634        -0.9334820321         4.1035151789
        0.5050000000       275.6455233549         3.0091534885         1.3046590794         0.9542539761        -0.8669947079         4.8109219509
        0.5100000000       311.3849206268         3.0465719762         1.3225253674         0.9517020986        -0.4015834383         5.4346921060
        0.5150000000       341.7109726797         3.0779848449         1.3352870017         0.9517020986        -0.0691468172         5.9639815635
        0.5200000000       366.0964690484         3.1030905494         1.3352870017         0.9542539761        -0.0691468172         6.3895887648
        0.5250000000       384.1174742708         3.1215910066         1.3378393285         0.9593577310        -0.0026594930         6.7041146405
        0.5300000000       395.4606978952         3.1332249697         1.3378393285         0.9568058535        -0.0026594930         6.9020912405
        0.5350000000       399.9289409523         3.1378070473         1.3403916554         0.9542539761         0.0638278313         6.9800767936
        0.5400000000       397.4445242080         3.1352593387         1.3352870017         0.9568058535        -0.0691468172         6.9367155415
        0.5450000000       388.0506385960         3.1256255099         1.3429439823         0.9644614859         0.1303151555         6.7727613080
        0.5500000000       371.9105943553         3.1090628513         1.3378393285         0.9593577310        -0.0026594930         6.4910643945
        0.5550000000       349.3049819240         3.0858148287         1.3403916554         0.9593577310         0.0638278313         6.0965220282
        0.5600000000       320.6267939484         3.0561729034         1.3403916554         0.9517020986         0.0638278313         5.5959932245
        0.5650000000       286.3745932087         3.0204401936         1.3531532897         0.9593577310         0.3962644524         4.9981795456
        0.5700000000       247.1438452361         2.9789097814         1.3812288851         0.9695652408         1.1276250189         4.3134738254
        0.5750000000       203.6165663002         2.9318670099         1.4271707685         0.9746689957         2.3243968550         3.5537794935
        0.5800000000       156.5494667349         2.8796188383         1.4629033445         0.9797727506         3.2552193941         2.7323036368
        0.5850000000       106.7607957282         2.8225458808         1.4807696325         0.9874283830         3.7206306637         1.8633273975
        0.5900000000        55.1161162739         2.7611661153         1.4858742862         1.0078434027         3.8536053122         0.9619576999
        0.5950000000         2.5132575862         2.5251388828         1.4858742862         1.0308102998         3.8536053122         0.0438646198
        0.6000000000       -50.1332934257         2.2335598250         1.4731126519         1.0410178097         3.5211686910        -0.8749910351
        0.6050000000      -101.9082902733         2.1637173559         1.4501417102         1.0461215646         2.9227827730        -1.7786352003
        0.6100000000      -151.9116382087         2.1007435530         1.4399324028         1.0665365843         2.6568334761        -2.6513582588
        0.6150000000      -199.2740421358         2.0443985076         1.4246184417         1.0716403392         2.2579095307        -3.4779881490
        0.6200000000      -243.1721190778         1.9944305276         1.3939905194         1.0690884617         1.4600616400        -4.2441541270
        0.6250000000      -282.8427124746         1.9506765172         1.3863335388         1.0843997265         1.2605996673        -4.9365365980
        0.6300000000      -317.5961594591         1.9131156990         1.3454963091         1.0741922166         0.1968024797        -5.5430986743
        0.6350000000      -346.8282804658         1.8818759396         1.3480486360         1.0895034814         0.2632898039        -6.0532954332
        0.6400000000      -370.0308827338         1.8571997984         1.3327346748         1.0818478490        -0.1356341414        -6.4582572378
        0.6450000000      -386.8005951050         1.8393834173         1.3429439823         1.0895034814         0.1303151555        -6.7509439333
        0.6500000000      -396.8458805258         1.8287047327         1.3327346748         1.0767440941        -0.1356341414        -6.9262672382
        0.6550000000      -399.9921043425         1.8253578665         1.3301823480         1.0767440941        -0.2021214656        -6.9811792028
        0.6600000000      -396.1845702787         1.8294080553         1.3403916554         1.0895034814         0.0638278313        -6.9147251970
        0.6650000000      -385.4894713160         1.8407766227         1.3301823480         1.0818478490        -0.2021214656        -6.7280605062
