% f=2.70Hz  n_cycles=5  N_total=370  dt=0.005000
% Amp=1.0000V  K_lin=7.165500
Time[s]              Vcmd[V]              Vc[V]                Vg[V]                Pot[V]               Omega[rad/s]         Omega_target[rad/s] 
        0.0000000000         0.0000000000         2.5000000000         1.3352870017         2.7022900355        -0.0608359017         0.0000000000
        0.0050000000         0.0847213221         2.7700857516         1.3378393285         2.7073937904         0.0056514226         0.6070706338
        0.0100000000         0.1688334447         2.8034895447         1.3301823480         2.7022900355        -0.1938105501         1.2097760481
        0.0150000000         0.2517315487         2.8367908470         1.3327346748         2.6971862806        -0.1273232259         1.8037824120
        0.0200000000         0.3328195445         2.8697424101         1.3429439823         2.7099456679         0.1386260710         2.3848184463
        0.0250000000         0.4115143586         2.9020908615         1.3403916554         2.7048419129         0.0721387468         2.9487061366
        0.0300000000         0.4872501257         2.9335785318         1.3352870017         2.7048419129        -0.0608359017         3.4913907759
        0.0350000000         0.5594822581         2.9639456095         1.3352870017         2.7048419129        -0.0608359017         4.0089701204
        0.0400000000         0.6276913613         2.9929326384         1.3429439823         2.7048419129         0.1386260710         4.4977224493
        0.0450000000         0.6913869690         3.0202833534         1.4424847297         2.7048419129         2.7316317159         4.9541333260
        0.0500000000         0.7501110696         3.0457478391         1.3990951731         2.7176013002         1.6013472040         5.3749208694
        0.0550000000         0.8034414001         3.0690859678         1.4093044805         2.7252569326         1.8672965009         5.7570593525
        0.0600000000         0.8509944818         3.0900710524         1.4271707685         2.7278088101         2.3327077705         6.0978009593
        0.0650000000         0.8924283781         3.1084936237         1.4348277491         2.7431200748         2.5321697432         6.3946955434
        0.0700000000         0.9274451533         3.1241652135         1.4475893834         2.7507757072         2.8646063643         6.6456082462
        0.0750000000         0.9557930148         3.1369220091         1.4603510177         2.7660869720         3.1970429854         6.8487348475
        0.0800000000         0.9772681236         3.1466282265         1.4629033445         2.7762944818         3.2635303097         7.0026147394
        0.0850000000         0.9917160601         3.1531790501         1.4731126519         2.7941576240         3.5294796066         7.1061414287
        0.0900000000         0.9990329347         3.1565029909         1.4782173056         2.8069170113         3.6624542550         7.1585704934
        0.0950000000         0.9991661343         3.1565635415         1.4935312668         2.8196763986         4.0613782004         7.1595249356
        0.1000000000         0.9921147013         3.1533600353         1.4833219594         2.8324357859         3.7954289035         7.1089978923
        0.1050000000         0.9779293398         3.1469276627         1.4960835936         2.8528508056         4.1278655246         7.0073526846
        0.1100000000         0.9567120516         3.1373366416         1.4960835936         2.8656101929         4.1278655246         6.8553202054
        0.1150000000         0.9286154021         3.1246905917         1.5037405742         2.8783695801         4.3273274973         6.6539936640
        0.1200000000         0.8938414242         3.1091241990         1.5113975548         2.9038883547         4.5267894700         6.4048207248
        0.1250000000         0.8526401644         3.0908002962         1.5113975548         2.9140958646         4.5267894700         6.1095930977
        0.1300000000         0.8053078857         3.0699065022         1.5216068622         2.9396146392         4.7927387669         5.7704336551
        0.1350000000         0.7521849371         3.0466515755         1.5088452279         2.9447183941         4.4603021457         5.3897811665
        0.1400000000         0.6936533058         3.0212616332         1.5165022085         2.9727890461         4.6597641184         4.9703727628
        0.1450000000         0.6301338712         2.9939763715         1.5088452279         2.9829965560         4.4603021457         4.5152242540
        0.1500000000         0.5620833779         2.9650454062         1.5241591891         2.9983078207         4.8592260911         4.0276084440
        0.1550000000         0.4899911516         2.9347248253         1.4960835936         3.0161709629         4.1278655246         3.5110315971
        0.1600000000         0.4143755810         2.9032740195         1.5088452279         3.0365859826         4.4603021457         2.9692082256
        0.1650000000         0.3357803894         2.8709528338         1.5037405742         3.0493453699         4.3273274973         2.4060343802
        0.1700000000         0.2547707257         2.8380190574         1.5088452279         3.0774160220         4.4603021457         1.8255596349
        0.1750000000         0.1719291003         2.8047262567         1.4960835936         3.0876235318         4.1278655246         1.2319579681
        0.1800000000         0.0878511966         2.7713219356         1.4884266131         3.1080385515         3.9284035519         0.6294977489
        0.1850000000         0.0031415875         2.5000000000         1.5037405742         3.1233498162         4.3273274973         0.0225110451
        0.1900000000        -0.0815906116         2.2261989939         1.4884266131         3.1335573261         3.9284035519        -0.5846375272
        0.1950000000        -0.1657361228         2.1910161773         1.4807696325         3.1565242232         3.7289415793        -1.1875821881
        0.2000000000        -0.2486898872         2.1559692775         1.4450370565         3.1743873654         2.7981190401        -1.7819873865
        0.2050000000        -0.3298554149         2.1213186066         1.3863335388         3.1692836105         1.2689105829        -2.3635789752
        0.2100000000        -0.4086490747         2.0873298170         1.3301823480         3.1692836105        -0.1938105501        -2.9281749450
        0.2150000000        -0.4845042908         2.0542719128         1.3174207137         3.1667317330        -0.5262471713        -3.4717154960
        0.2200000000        -0.5568756165         2.0224149562         1.3454963091         3.1794911203         0.2051133952        -3.9902922299
        0.2250000000        -0.6252426563         1.9920274653         1.3378393285         3.1667317330         0.0056514226        -4.4801762540
        0.2300000000        -0.6891138084         1.9633735122         1.3352870017         3.1718354879        -0.0608359017        -4.9378449940
        0.2350000000        -0.7480297989         1.9367095482         1.3301823480         3.1667317330        -0.1938105501        -5.3600075240
        0.2400000000        -0.8015669849         1.9122810024         1.2740311571         3.1692836105        -1.6565316831        -5.7436282301
        0.2450000000        -0.8493404003         1.8903187177         1.2127753126         3.1641798556        -3.2522274645        -6.0859486381
        0.2500000000        -0.8910065242         1.8710353147         1.2561648691         3.1437648359        -2.1219429527        -6.3845072491
        0.2550000000        -0.9262657510         1.8546215893         1.2612695229         3.1386610810        -1.9889683042        -6.6371572389
        0.2600000000        -0.9548645447         1.8412430673         1.1923566977         3.1335573261        -3.7841260584        -6.8420818954
        0.2650000000        -0.9765972621         1.8310368472         1.2178799663         3.1182460613        -3.1192528161        -6.9978076813
        0.2700000000        -0.9913076311         1.8241088656         1.1923566977         3.0952791642        -3.7841260584        -7.1032148304
        0.2750000000        -0.9988898750         1.8205317073         1.2051183320         3.0901754092        -3.4516894372        -7.1575453990
        0.2800000000        -0.9992894726         1.8203430667         1.2000136783         3.0774160220        -3.5846640857        -7.1604087162
        0.2850000000        -0.9925035507         1.8235449357         1.1898043709         3.0672085121        -3.8506133826        -7.1117841929
        0.2900000000        -0.9785809043         1.8301035607         1.1617287755         3.0391378601        -4.5819739491        -7.0120214699
        0.2950000000        -0.9576216460         1.8399501702         1.1795950634         3.0212747179        -4.1165626795        -6.8618379041
        0.3000000000        -0.9297764859         1.8529824364         1.1693857560         3.0161709629        -4.3825119764        -6.6623134096
        0.3050000000        -0.8952456483         1.8690665971         1.1744904097         2.9957559433        -4.2495373279        -6.4148826931
        0.3100000000        -0.8542774317         1.8880401358         1.1515194680         2.9778928011        -4.8479232460        -6.1213249368
        0.3150000000        -0.8071664232         1.9097148984         1.1668334292         2.9574777814        -4.4489993006        -5.7837510058
        0.3200000000        -0.7542513807         1.9338805131         1.1668334292         2.9472702715        -4.4489993006        -5.4045882687
        0.3250000000        -0.6959127966         1.9603079816         1.1642811023         2.9243033744        -4.5154866249        -4.9865631440
        0.3300000000        -0.6325701619         1.9887533176         1.1617287755         2.9115439871        -4.5819739491        -4.5326814952
        0.3350000000        -0.5646789501         2.0189611228         1.1642811023         2.8962327224        -4.5154866249        -4.0462070167
        0.3400000000        -0.4927273415         2.0506680103         1.1642811023         2.8783695801        -4.5154866249        -3.5306377659
        0.3450000000        -0.4172327137         2.0836058077         1.1693857560         2.8605064379        -4.3825119764        -2.9896810097
        0.3500000000        -0.3387379202         2.1175044900         1.1821473903         2.8477470506        -4.0500753553        -2.4272265675
        0.3550000000        -0.2578073882         2.1520948167         1.1770427366         2.8298839084        -4.1830500037        -1.8473188402
        0.3600000000        -0.1750230590         2.1871106594         1.1949090246         2.8222282761        -3.7176387341        -1.2541277291
        0.3650000000        -0.0909802039         2.2222910234         1.1872520440         2.8018132564        -3.9171007068        -0.6519186511
        0.3700000000        -0.0062831440         2.5000000000         1.2076706589         2.7890538691        -3.3852021130        -0.0450218681
        0.3750000000         0.0784590957         2.7676139630         1.2025660052         2.7737426043        -3.5181767615         0.5621986504
        0.3800000000         0.1626371652         2.8010157140         1.2153276394         2.7686388494        -3.1857401403         1.1653766072
        0.3850000000         0.2456457712         2.8343330016         1.2638218497         2.7507757072        -1.9224809800         1.7601747735
        0.3900000000         0.3268880297         2.8673190952         1.2867927914         2.7456719523        -1.3240950620         2.3423161765
        0.3950000000         0.4057797577         2.8997210172         1.3123160600         2.7507757072        -0.6592218197         2.9076148536
        0.4000000000         0.4817536741         2.9312813465         1.3429439823         2.7380163199         0.1386260710         3.4520059518
        0.4050000000         0.5542634787         2.9617403491         1.3378393285         2.7405681974         0.0056514226         3.9715749569
        0.4100000000         0.6227877805         2.9908384491         1.3301823480         2.7456719523        -0.1938105501         4.4625858411
        0.4150000000         0.6868338465         3.0183190407         1.3378393285         2.7456719523         0.0056514226         4.9215079274
        0.4200000000         0.7459411454         3.0439316233         1.3480486360         2.7482238297         0.2716007195         5.3450412775
        0.4250000000         0.7996846585         3.0674352209         1.4195137880         2.7507757072         2.1332457978         5.7301404204
        0.4300000000         0.8476779361         3.0886020225         1.4399324028         2.7584313396         2.6651443916         6.0740362510
        0.4350000000         0.8895758764         3.1072211528         1.4144091342         2.7711907269         2.0002711494         6.3742559422
        0.4400000000         0.9250772068         3.1231024602         1.4322754222         2.7813982367         2.4656824189         6.6286407256
        0.4450000000         0.9539266506         3.1360801857         1.4756649788         2.7916057465         3.5959669308         6.8353614146
        0.4500000000         0.9759167619         3.1460163622         1.4424847297         2.7890538691         2.7316317159         6.9929315577
        0.4550000000         0.9908894182         3.1528037911         1.4782173056         2.8145726437         3.6624542550         7.1002181263
        0.4600000000         0.9987369566         3.1563684489         1.4782173056         2.8247801535         3.6624542550         7.1564496626
        0.4650000000         0.9994029484         3.1566711971         1.4782173056         2.8400914183         3.6624542550         7.1612218264
        0.4700000000         0.9928826046         3.1537087035         1.4884266131         2.8528508056         3.9284035519         7.1145003030
        0.4750000000         0.9792228106         3.1475135205         1.5037405742         2.8681620703         4.3273274973         7.0166210495
        0.4800000000         0.9585217890         3.1381533178         1.4909789399         2.8783695801         3.9948908762         6.8682878792
        0.4850000000         0.9309283931         3.1257293129         1.4986359205         2.9013364773         4.1943528488         6.6705674009
        0.4900000000         0.8966410368         3.1103739844         1.5037405742         2.9140958646         4.3273274973         6.4248813491
        0.4950000000         0.8559062677         3.0922481908         1.5113975548         2.9370627617         4.5267894700         6.1329963610
        0.5000000000         0.8090169944         3.0715378373         1.5037405742         2.9472702715         4.3273274973         5.7970112732
        0.5050000000         0.7563103803         3.0484502456         1.5113975548         2.9651334138         4.5267894700         5.4193420297
        0.5100000000         0.6981654190         3.0232103773         1.5037405742         2.9829965560         4.3273274973         5.0027043098
        0.5150000000         0.6350002094         2.9960570502         1.5267115159         3.0059634531         4.9257134153         4.5500940007
        0.5200000000         0.5672689491         2.9672392667         1.5139498816         3.0263784728         4.5932767942         4.0647656550
        0.5250000000         0.4954586684         2.9370127477         1.5190545354         3.0467934924         4.7262514427         3.5502090887
        0.5300000000         0.4200857284         2.9056367412         1.5113975548         3.0544491248         4.5267894700         3.0101242869
        0.5350000000         0.3416921079         2.8733711487         1.5062929011         3.0748641445         4.3938148215         2.4483947991
        0.5400000000         0.2608415063         2.8404739902         1.5011882474         3.0901754092         4.2608401731         1.8690598133
        0.5450000000         0.1781152903         2.8071992118         1.4909789399         3.1003829191         3.9948908762         1.2762851124
        0.5500000000         0.0941083133         2.7737948228         1.5088452279         3.1310054486         4.4603021457         0.6743331191
        0.5550000000         0.0094246384         2.5000000000         1.4884266131         3.1361092035         3.9284035519         0.0675322467
        0.5600000000        -0.0753268055         2.2288035189         1.4884266131         3.1488685908         3.9284035519        -0.5397542250
        0.5650000000        -0.1595366024         2.1936208059         1.4654556714         3.1641798556         3.3300176339        -1.1431595245
        0.5700000000        -0.2425992308         2.1585549882         1.4220661148         3.1743873654         2.1997331220        -1.7383447883
        0.5750000000        -0.3239174182         2.1238659114         1.3837812120         3.1820429978         1.2024232586        -2.3210302601
        0.5800000000        -0.4029064357         2.0898188968         1.3633625971         3.1922505076         0.6705246648        -2.8870260651
        0.5850000000        -0.4789983026         2.0566827751         1.3352870017         3.1922505076        -0.0608359017        -3.4322623376
        0.5900000000        -0.5516458706         2.0247276156         1.3250776943         3.1871467527        -0.3267851986        -3.9528184860
        0.5950000000        -0.6203267580         1.9942221467         1.3327346748         3.1871467527        -0.1273232259        -4.4449513843
        0.6000000000        -0.6845471059         1.9654308755         1.3378393285         3.1896986301         0.0056514226        -4.9051222875
        0.6050000000        -0.7438451298         1.9386109323         1.3378393285         3.1922505076         0.0056514226        -5.3300222776
        0.6100000000        -0.7977944395         1.9140086830         1.3046590794         3.1948023851        -0.8586837924        -5.7165960565
        0.6150000000        -0.8460071057         1.8918561754         1.2025660052         3.1794911203        -3.5181767615        -6.0620639157
        0.6200000000        -0.8881364488         1.8723675048         1.2561648691         3.1641798556        -2.1219429527        -6.3639417240
        0.6250000000        -0.9238795325         1.8557352045         1.2561648691         3.1667317330        -2.1219429527        -6.6200587902
        0.6300000000        -0.9529793415         1.8421267846         1.2000136783         3.1514204683        -3.5846640857        -6.8285734716
        0.6350000000        -0.9752266299         1.8316815492         1.2025660052         3.1361092035        -3.5181767615        -6.9879864166
        0.6400000000        -0.9904614257         1.8245078256         1.2000136783         3.1182460613        -3.5846640857        -7.0971513458
        0.6450000000        -0.9985741811         1.8206807305         1.2025660052         3.1131423064        -3.5181767615        -7.1552832948
        0.6500000000        -0.9995065604         1.8202405798         1.1949090246         3.0952791642        -3.7176387341        -7.1619642583
        0.6550000000        -0.9932518590         1.8231920210         1.1744904097         3.0774160220        -4.2495373279        -7.1171461960
        0.6600000000        -0.9798550524         1.8295039328         1.1744904097         3.0621047572        -4.2495373279        -7.0211513779
        0.6650000000        -0.9594124719         1.8391100961         1.1821473903         3.0467934924        -4.0500753553        -6.8746700671
