% f=3.40Hz  n_cycles=5  N_total=294  dt=0.005000
% Amp=1.0000V  K_lin=7.165500
Time[s]              Vcmd[V]              Vc[V]                Vg[V]                Pot[V]               Omega[rad/s]         Omega_target[rad/s] 
        0.0000000000         0.0000000000         2.5000000000         1.3301823480         2.7941576240        -0.1938105501         0.0000000000
        0.0050000000         0.1066111543         2.7787423388         1.3429439823         2.8069170113         0.1386260710         0.7639222260
        0.0100000000         0.2120071099         2.8207851403         1.3403916554         2.7992613789         0.0721387468         1.5191369461
        0.0150000000         0.3149865197         2.8624629595         1.3454963091         2.8043651338         0.2051133952         2.2570359066
        0.0200000000         0.4143755810         2.9032740195         1.3454963091         2.8043651338         0.2051133952         2.9692082256
        0.0250000000         0.5090414158         2.9427047272         1.3352870017         2.7967095015        -0.0608359017         3.6475362646
        0.0300000000         0.5979049831         2.9802364052         1.3403916554         2.7992613789         0.0721387468         4.2842881561
        0.0350000000         0.6799533787         3.0153533767         1.3352870017         2.7992613789        -0.0608359017         4.8722059352
        0.0400000000         0.7542513807         3.0475523816         1.3761242314         2.7967095015         1.0029612860         5.4045882687
        0.0450000000         0.8199521093         3.0763531803         1.4552463639         2.8171245211         3.0640683370         5.8753668394
        0.0500000000         0.8763066800         3.1013100559         1.4118568074         2.8222282761         1.9337838251         6.2791755159
        0.0550000000         0.9226727399         3.1220237624         1.4169614611         2.8247801535         2.0667584736         6.6114115175
        0.0600000000         0.9585217890         3.1381533178         1.4552463639         2.8324357859         3.0640683370         6.8682878792
        0.0650000000         0.9834452050         3.1494269215         1.4424847297         2.8451951732         2.7316317159         7.0468766164
        0.0700000000         0.9971589003         3.1556512350         1.4577986908         2.8554026830         3.1305556612         7.1451420998
        0.0750000000         0.9995065604         3.1567183006         1.4756649788         2.8681620703         3.5959669308         7.1619642583
        0.0800000000         0.9904614257         3.1526095230         1.4782173056         2.8860252125         3.6624542550         7.0971513458
        0.0850000000         0.9701265965         3.1433963633         1.4833219594         2.9064402322         3.7954289035         6.9514421271
        0.0900000000         0.9387338577         3.1292376847         1.5088452279         2.9217514970         4.4603021457         6.7264974570
        0.0950000000         0.8966410368         3.1103739844         1.4986359205         2.9319590068         4.1943528488         6.4248813491
        0.1000000000         0.8443279255         3.0871190042         1.4935312668         2.9498221490         4.0613782004         6.0500317502
        0.1050000000         0.7823908106         3.0598493944         1.5011882474         2.9625815363         4.2608401731         5.6062213532
        0.1100000000         0.7115356772         3.0289931902         1.4909789399         2.9804446785         3.9948908762         5.0985088950
        0.1150000000         0.6325701619         2.9950178464         1.5190545354         3.0008596982         4.7262514427         4.5326814952
        0.1200000000         0.5463943467         2.9584184877         1.5088452279         3.0136190855         4.4603021457         3.9151886915
        0.1250000000         0.4539904997         2.9197068910         1.4960835936         3.0289303502         4.1278655246         3.2530689259
        0.1300000000         0.3564118787         2.8794015548         1.4935312668         3.0442416150         4.0613782004         2.5538693169
        0.1350000000         0.2547707257         2.8380190574         1.5037405742         3.0646566347         4.3273274973         1.8255596349
        0.1400000000         0.1502255891         2.7960667717         1.4986359205         3.0748641445         4.1943528488         1.0764414588
        0.1450000000         0.0439681183         2.7540369024         1.4833219594         3.0901754092         3.7954289035         0.3150535518
        0.1500000000        -0.0627905195         2.2340102208         1.4833219594         3.1105904289         3.7954289035        -0.4499254677
        0.1550000000        -0.1688334447         2.1897141349         1.4782173056         3.1284535711         3.6624542550        -1.2097760481
        0.1600000000        -0.2729519355         2.1456492234         1.4373800759         3.1310054486         2.5986570674        -1.9558370939
        0.1650000000        -0.3739592057         2.1023370636         1.4093044805         3.1361092035         1.8672965009        -2.6796046887
        0.1700000000        -0.4707039322         2.0603111852         1.3608102703         3.1437648359         0.6040373406        -3.3728290259
        0.1750000000        -0.5620833779         2.0201103618         1.3454963091         3.1590761006         0.2051133952        -4.0276084440
        0.1800000000        -0.6470559616         1.9822706794         1.3250776943         3.1539723457        -0.3267851986        -4.6364794926
        0.1850000000        -0.7246531302         1.9473164092         1.3429439823         3.1539723457         0.1386260710        -5.1925020044
        0.1900000000        -0.7939903986         1.9157498133         1.3301823480         3.1539723457        -0.1938105501        -5.6893382015
        0.1950000000        -0.8542774317         1.8880401358         1.3123160600         3.1488685908        -0.6592218197        -6.1213249368
        0.2000000000        -0.9048270525         1.8646121598         1.2102229857         3.1361092035        -3.3187147888        -6.4835382444
        0.2050000000        -0.9450630752         1.8458348429         1.2587171960         3.1259016937        -2.0554556285        -6.7718494652
        0.2100000000        -0.9745268728         1.8320106398         1.2331939274         3.1207979388        -2.7203288707        -6.9829723070
        0.2150000000        -0.9928826046         1.8233661728         1.2178799663         3.1131423064        -3.1192528161        -7.1145003030
        0.2200000000        -0.9999210442         1.8200448927         1.2051183320         3.0978310416        -3.4516894372        -7.1649342422
        0.2250000000        -0.9955619646         1.8221022756         1.2051183320         3.0876235318        -3.4516894372        -7.1336992574
        0.2300000000        -0.9798550524         1.8295039328         1.1949090246         3.0774160220        -3.7176387341        -7.0211513779
        0.2350000000        -0.9529793415         1.8421267846         1.2127753126         3.0621047572        -3.2522274645        -6.8285734716
        0.2400000000        -0.9152411726         1.8597632042         1.1795950634         3.0493453699        -4.1165626795        -6.5581606224
        0.2450000000        -0.8670707012         1.8821278043         1.1846997172         3.0263784728        -3.9835880310        -6.2129951092
        0.2500000000        -0.8090169944         1.9088663533         1.1821473903         3.0161709629        -4.0500753553        -5.7970112732
        0.2550000000        -0.7417417727         1.9395661960         1.1872520440         3.0008596982        -3.9171007068        -5.3149506726
        0.2600000000        -0.6660118674         1.9737675140         1.1744904097         2.9829965560        -4.2495373279        -4.7723080361
        0.2650000000        -0.5826904797         2.0109748004         1.1923566977         2.9676852912        -3.7841260584        -4.1752686321
        0.2700000000        -0.4927273415         2.0506680103         1.1744904097         2.9421665166        -4.2495373279        -3.5306377659
        0.2750000000        -0.3971478906         2.0923129741         1.1719380829         2.9294071293        -4.3160246522        -2.8457632103
        0.2800000000        -0.2970415816         2.1353707914         1.1770427366         2.9140958646        -4.1830500037        -2.1284514528
        0.2850000000        -0.1935494681         2.1793060503         1.1872520440         2.9038883547        -3.9171007068        -1.3868787133
        0.2900000000        -0.0878511966         2.2235938211         1.1846997172         2.8834733351        -3.9835880310        -0.6294977489
        0.2950000000         0.0188484397         2.7441878534         1.1923566977         2.8732658252        -3.7841260584         0.1350584948
        0.3000000000         0.1253332336         2.7861665191         1.2025660052         2.8528508056        -3.5181767615         0.8980752851
        0.3050000000         0.2303894267         2.8281806726         1.2612695229         2.8554026830        -1.9889683042         1.6508554369
        0.3100000000         0.3328195445         2.8697424101         1.2970020988         2.8477470506        -1.0581457651         2.3848184463
        0.3150000000         0.4314560457         2.9103474383         1.3148683868         2.8375395408        -0.5927344955         3.0915982953
        0.3200000000         0.5251746300         2.9494807397         1.3480486360         2.8426432957         0.2716007195         3.7631388110
        0.3250000000         0.6129070537         2.9866235401         1.3454963091         2.8477470506         0.2051133952         4.3917854930
        0.3300000000         0.6936533058         3.0212616332         1.3301823480         2.8400914183        -0.1938105501         4.9703727628
        0.3350000000         0.7664930068         3.0528950205         1.3352870017         2.8477470506        -0.0608359017         5.4923056403
        0.3400000000         0.8305958992         3.0810486995         1.3403916554         2.8528508056         0.0721387468         5.9516349157
        0.3450000000         0.8852313113         3.1052842815         1.3990951731         2.8502989281         1.6013472040         6.3431249614
        0.3500000000         0.9297764859         3.1252119606         1.4833219594         2.8605064379         3.7954289035         6.6623134096
        0.3550000000         0.9637236783         3.1405022067         1.4271707685         2.8732658252         2.3327077705         6.9055620168
        0.3600000000         0.9866859442         3.1508964496         1.4424847297         2.8758177027         2.7316317159         7.0700981332
        0.3650000000         0.9984015501         3.1562159925         1.4654556714         2.8860252125         3.3300176339         7.1540463073
        0.3700000000         0.9987369566         3.1563684489         1.4577986908         2.8962327224         3.1305556612         7.1564496626
        0.3750000000         0.9876883406         3.1513511616         1.4833219594         2.9166477420         3.7954289035         7.0772808045
        0.3800000000         0.9653816388         3.1412513020         1.4884266131         2.9345108842         3.9284035519         6.9174421331
        0.3850000000         0.9320711125         3.1262426408         1.4782173056         2.9523740265         3.6624542550         6.6787555563
        0.3900000000         0.8881364488         3.1065792752         1.4884266131         2.9625815363         3.9284035519         6.3639417240
        0.3950000000         0.8340784336         3.0825868435         1.5062929011         2.9727890461         4.3938148215         5.9765890161
        0.4000000000         0.7705132428         3.0546519233         1.4909789399         2.9906521883         3.9948908762         5.5211126411
        0.4050000000         0.6981654190         3.0232103773         1.4935312668         3.0085153306         4.0613782004         5.0027043098
        0.4100000000         0.6178596131         2.9887353818         1.4935312668         3.0263784728         4.0613782004         4.4272730576
        0.4150000000         0.5305111843         2.9517257737         1.4884266131         3.0442416150         3.9284035519         3.8013778911
        0.4200000000         0.4371157667         2.9126952026         1.4935312668         3.0518972474         4.0613782004         3.1321530259
        0.4250000000         0.3387379202         2.8721624176         1.4986359205         3.0697603896         4.1943528488         2.4272265675
        0.4300000000         0.2364989970         2.8306428634         1.4884266131         3.0850716543         3.9284035519         1.6946335632
        0.4350000000         0.1315643591         2.7886416331         1.4782173056         3.1054866740         3.6624542550         0.9427244151
        0.4400000000         0.0251300954         2.7466477294         1.5037405742         3.1284535711         4.3273274973         0.1800696989
        0.4450000000        -0.0815906116         2.2261989939         1.4782173056         3.1310054486         3.6624542550        -0.5846375272
        0.4500000000        -0.1873813146         2.1819065120         1.4782173056         3.1437648359         3.6624542550        -1.3426808097
        0.4550000000        -0.2910361668         2.1379361201         1.4450370565         3.1667317330         2.7981190401        -2.0854196534
        0.4600000000        -0.3913736668         2.0948119391         1.3939905194         3.1769392429         1.4683725555        -2.8043880097
        0.4650000000        -0.4872501257         2.0530689461         1.3403916554         3.1718354879         0.0721387468        -3.4913907759
        0.4700000000        -0.5775727034         2.0132460519         1.3327346748         3.1769392429        -0.1273232259        -4.1385972064
        0.4750000000        -0.6613118653         1.9758779534         1.3429439823         3.1718354879         0.1386260710        -4.7386301710
        0.4800000000        -0.7375131174         1.9414858057         1.3378393285         3.1718354879         0.0056514226        -5.2846502424
        0.4850000000        -0.8053078857         1.9105668625         1.3378393285         3.1769392429         0.0056514226        -5.7704336551
        0.4900000000        -0.8639234172         1.8835833580         1.3403916554         3.1743873654         0.0721387468        -6.1904432459
        0.4950000000        -0.9126915874         1.8609510387         1.2178799663         3.1692836105        -3.1192528161        -6.5398915695
        0.5000000000        -0.9510565163         1.8430278723         1.2408509080         3.1514204683        -2.5208668981        -6.8147954675
        0.5050000000        -0.9785809043         1.8301035607         1.2612695229         3.1412129584        -1.9889683042        -7.0120214699
        0.5100000000        -0.9949510170         1.8223905161         1.2025660052         3.1259016937        -3.5181767615        -7.1293215122
        0.5150000000        -0.9999802609         1.8200169341         1.1846997172         3.1131423064        -3.9835880310        -7.1653585592
        0.5200000000        -0.9936113105         1.8230224830         1.2025660052         3.0978310416        -3.5181767615        -7.1197218455
        0.5250000000        -0.9759167619         1.8313569501         1.1821473903         3.0850716543        -4.0500753553        -6.9929315577
        0.5300000000        -0.9470983050         1.8448819539         1.1949090246         3.0723122670        -3.7176387341        -6.7864329044
        0.5350000000        -0.9074844245         1.8633755837         1.1770427366         3.0544491248        -4.1830500037        -6.5025796440
        0.5400000000        -0.8575266562         1.8865396038         1.1719380829         3.0416897375        -4.3160246522        -6.1446072550
        0.5450000000        -0.7977944395         1.9140086830         1.1719380829         3.0212747179        -4.3160246522        -5.7165960565
        0.5500000000        -0.7289686274         1.9453610110         1.1795950634         3.0136190855        -4.1165626795        -5.2234246998
        0.5550000000        -0.6518337253         1.9801296406         1.1744904097         2.9932040658        -4.2495373279        -4.6707145586
        0.5600000000        -0.5672689491         2.0178139407         1.1770427366         2.9829965560        -4.1830500037        -4.0647656550
        0.5650000000        -0.4762382037         2.0578906433         1.1795950634         2.9727890461        -4.1165626795        -3.4124848484
        0.5700000000        -0.3797790955         2.0998240935         1.1795950634         2.9549259039        -4.1165626795        -2.7213071090
        0.5750000000        -0.2789911060         2.1430754441         1.1898043709         2.9421665166        -3.8506133826        -1.9991107703
        0.5800000000        -0.1750230590         2.1871106594         1.1821473903         2.9217514970        -4.0500753553        -1.2541277291
        0.5850000000        -0.0690600257         2.2314072948         1.1821473903         2.9038883547        -4.0500753553        -0.4948496143
        0.5900000000         0.0376901827         2.7515723473         1.1949090246         2.8911289674        -3.7176387341         0.2700690039
        0.5950000000         0.1440107826         2.7935918573         1.2051183320         2.8834733351        -3.4516894372         1.0319092624
        0.6000000000         0.2486898872         2.8355621575         1.2331939274         2.8656101929        -2.7203288707         1.7819873865
        0.6050000000         0.3505343202         2.8769920943         1.2714788303         2.8605064379        -1.7230190073         2.5117536713
        0.6100000000         0.4483832161         2.9173750347         1.3352870017         2.8579545605        -0.0608359017         3.2128899349
        0.6150000000         0.5411212521         2.9561947532         1.3506009628         2.8528508056         0.3380880437         3.8774043321
        0.6200000000         0.6276913613         2.9929326384         1.3301823480         2.8528508056        -0.1938105501         4.4977224493
        0.6250000000         0.7071067812         3.0270762550         1.3352870017         2.8630583154        -0.0608359017         5.0667736406
        0.6300000000         0.7784623016         3.0581292029         1.3429439823         2.8605064379         0.1386260710         5.5780716219
        0.6350000000         0.8409445823         3.0856220796         1.3454963091         2.8656101929         0.2051133952         6.0257884045
        0.6400000000         0.8938414242         3.1091241990         1.3837812120         2.8656101929         1.2024232586         6.4048207248
        0.6450000000         0.9365498867         3.1282555615         1.4807696325         2.8758177027         3.7289415793         6.7108482135
        0.6500000000         0.9685831611         3.1426984233         1.4118568074         2.8809214576         1.9337838251         6.9403826411
        0.6550000000         0.9895761186         3.1522077241         1.4424847297         2.8962327224         2.7316317159         7.0908076778
        0.6600000000         0.9992894726         3.1566196105         1.4629033445         2.8962327224         3.2635303097         7.1604087162
        0.6650000000         0.9976125064         3.1558573747         1.4705603251         2.9166477420         3.4629922823         7.1483924143
