% f=2.40Hz  n_cycles=5  N_total=416  dt=0.005000
% Amp=1.5000V  K_lin=5.741200
Time[s]              Vcmd[V]              Vc[V]                Vg[V]                Pot[V]               Omega[rad/s]         Omega_target[rad/s] 
        0.0000000000         0.0000000000         2.5000000000         1.3352870017         2.3986166179        -0.0452113805         0.0000000000
        0.0050000000         0.1129902083         2.7398678810         1.3378393285         2.4011684953         0.0212759438         0.6486993838
        0.0100000000         0.2253383837         2.7775656269         1.3429439823         2.4062722502         0.1542505922         1.2937127284
        0.0150000000         0.3364061414         2.8145991825         1.3429439823         2.4062722502         0.1542505922         1.9313749391
        0.0200000000         0.4455623724         2.8507723555         1.3352870017         2.4011684953        -0.0452113805         2.5580626922
        0.0250000000         0.5521868290         2.8858969127         1.3429439823         2.4062722502         0.1542505922         3.1702150228
        0.0300000000         0.6556736500         2.9197931979         1.3352870017         2.4011684953        -0.0452113805         3.7643535592
        0.0350000000         0.7554348025         2.9522906697         1.3352870017         2.3935128629        -0.0452113805         4.3371022878
        0.0400000000         0.8509034237         2.9832283640         1.3327346748         2.3935128629        -0.1116987047         4.8852067361
        0.0450000000         0.9415370419         3.0124552920         1.3378393285         2.3986166179         0.0212759438         5.4055524652
        0.0500000000         1.0268206589         3.0398307793         1.3352870017         2.4011684953        -0.0452113805         5.8951827668
        0.0550000000         1.1062696760         3.0652247542         1.3352870017         2.3935128629        -0.0452113805         6.3513154641
        0.0600000000         1.1794326482         3.0885179903         1.3352870017         2.4037203728        -0.0452113805         6.7713587199
        0.0650000000         1.2458938488         3.1096023109         1.3327346748         2.3960647404        -0.1116987047         7.1529257647
        0.0700000000         1.3052756320         3.1283807580         1.3352870017         2.4011684953        -0.0452113805         7.4938484585
        0.0750000000         1.3572405787         3.1447677334         1.3454963091         2.4062722502         0.2207379164         7.7921896104
        0.0800000000         1.4014934137         3.1586891127         1.3352870017         2.3960647404        -0.0452113805         8.0462539866
        0.0850000000         1.4377826835         3.1700823389         1.3480486360         2.4088241277         0.2872252407         8.2545979427
        0.0900000000         1.4659021854         3.1788964952         1.3327346748         2.3986166179        -0.1116987047         8.4160376265
        0.0950000000         1.4856921385         3.1850923624         1.3429439823         2.4062722502         0.1542505922         8.5296557058
        0.1000000000         1.4970400926         3.1886424603         1.3403916554         2.4037203728         0.0877632680         8.5948065799
        0.1050000000         1.4998815663         3.1895310762         1.3327346748         2.4037203728        -0.1116987047         8.6111200485
        0.1100000000         1.4942004137         3.1877542810         1.3403916554         2.4113760052         0.0877632680         8.5785034152
        0.1150000000         1.4800289163         3.1833199326         1.3659149240         2.4062722502         0.7526365102         8.4971420143
        0.1200000000         1.4574475994         3.1762476686         1.4909789399         2.4190316375         4.0105153974         8.3674981575
        0.1250000000         1.4265847744         3.1665688859         1.5905196873         2.4445504121         6.6035210422         8.1903085070
        0.1300000000         1.3876158103         3.1543267085         1.5624440919         2.4624135543         5.8721604757         7.9665798898
        0.1350000000         1.3407621362         3.1395759401         1.5496824576         2.4879323289         5.5397238546         7.6975835765
        0.1400000000         1.2862899843         3.1223830028         1.5343684965         2.5032435937         5.1407999092         7.3848480578
        0.1450000000         1.2245088761         3.1028258567         1.5113975548         2.5211067359         4.5424139912         7.0301503593
        0.1500000000         1.1557698642         3.0809939006         1.4986359205         2.5364180006         4.2099773700         6.6355059441
        0.1550000000         1.0804635373         3.0569878491         1.5088452279         2.5568330203         4.4759266669         6.2031572605
        0.1600000000         0.9990178012         3.0309195826         1.5139498816         2.5797999174         4.6089013154         5.7355610000
        0.1650000000         0.9118954465         3.0029119670         1.5241591891         2.5925593047         4.8748506123         5.2353741377
        0.1700000000         0.8195915201         2.9730986374         1.5292638428         2.6180780793         5.0078252608         4.7054388352
        0.1750000000         0.7226305112         2.9416237406         1.5241591891         2.6282855892         4.8748506123         4.1487662906
        0.1800000000         0.6215633715         2.9086416310         1.5267115159         2.6589081187         4.9413379365         3.5685196284
        0.1850000000         0.5169643848         2.8743165124         1.5165022085         2.6716675060         4.6753886396         2.9679959258
        0.1900000000         0.4094279033         2.8388220195         1.5139498816         2.6895306482         4.6089013154         2.3506074783
        0.1950000000         0.2995649708         2.8023407309         1.5165022085         2.7150494228         4.6753886396         1.7198624102
        0.2000000000         0.1879998503         2.7650636058         1.5037405742         2.7252569326         4.3429520185         1.0793447408
        0.2050000000         0.0753664773         2.7271893370         1.5139498816         2.7431200748         4.6089013154         0.4326940193
        0.2100000000        -0.0376951432         2.5000000000         1.5139498816         2.7660869720         4.6089013154        -0.2164153559
        0.2150000000        -0.1505425723         2.2272763264         1.4986359205         2.7839501142         4.2099773700        -0.8642950160
        0.2200000000        -0.2625345885         2.1946392112         1.4884266131         2.7916057465         3.9440280731        -1.5072635793
        0.2250000000        -0.3730348307         2.1622593791         1.4577986908         2.7992613789         3.1461801824        -2.1416675703
        0.2300000000        -0.4814154147         2.1303266064         1.4424847297         2.8145726437         2.7472562370        -2.7639021789
        0.2350000000        -0.5870605003         2.0990311771         1.4169614611         2.8273320310         2.0823829948        -3.3704317441
        0.2400000000        -0.6893697909         2.0685626735         1.4016475000         2.8426432957         1.6834590494        -3.9578098437
        0.2450000000        -0.7877619449         2.0391086927         1.3812288851         2.8298839084         1.1515604556        -4.5226988783
        0.2500000000        -0.8816778784         2.0108534965         1.3582579434         2.8375395408         0.5531745376        -5.0618890357
        0.2550000000        -0.9705839424         1.9839766058         1.3327346748         2.8426432957        -0.1116987047        -5.5723165298
        0.2600000000        -1.0539749547         1.9586513531         1.3276300211         2.8451951732        -0.2446733532        -6.0510810099
        0.2650000000        -1.1313770711         1.9350434104         1.3301823480         2.8375395408        -0.1781860289        -6.4954620406
        0.2700000000        -1.2023504773         1.9133093107         1.3378393285         2.8426432957         0.0212759438        -6.9029345603
        0.2750000000        -1.2664918883         1.8935949881         1.3378393285         2.8426432957         0.0212759438        -7.2711832288
        0.2800000000        -1.3234368397         1.8760343569         1.3301823480         2.8400914183        -0.1781860289        -7.5981155838
        0.2850000000        -1.3728617589         1.8607479596         1.3454963091         2.8502989281         0.2207379164        -7.8818739304
        0.2900000000        -1.4144858038         1.8478417070         1.3327346748         2.8451951732        -0.1116987047        -8.1208458970
        0.2950000000        -1.4480724582         1.8374057388         1.3352870017         2.8400914183        -0.0452113805        -8.3136735973
        0.3000000000        -1.4734308761         1.8295134291         1.3403916554         2.8426432957         0.0877632680        -8.4592613458
        0.3050000000        -1.4904169658         1.8242205598         1.3352870017         2.8426432957        -0.0452113805        -8.5567818839
        0.3100000000        -1.4989342090         1.8215646822         1.3123160600         2.8502989281        -0.6435972985        -8.6056810805
        0.3150000000        -1.4989342090         1.8215646822         1.3327346748         2.8349876633        -0.1116987047        -8.6056810805
        0.3200000000        -1.4904169658         1.8242205598         1.3403916554         2.8400914183         0.0877632680        -8.5567818839
        0.3250000000        -1.4734308761         1.8295134291         1.3276300211         2.8426432957        -0.2446733532        -8.4592613458
        0.3300000000        -1.4480724582         1.8374057388         1.1770427366         2.8298839084        -4.1674254825        -8.3136735973
        0.3350000000        -1.4144858038         1.8478417070         1.0953682772         2.8145726437        -6.2950198578        -8.1208458970
        0.3400000000        -1.3728617589         1.8607479596         1.1259961995         2.7865019916        -5.4971719671        -7.8818739304
        0.3450000000        -1.3234368397         1.8760343569         1.1438624875         2.7609832170        -5.0317606975        -7.5981155838
        0.3500000000        -1.2664918883         1.8935949881         1.1566241217         2.7431200748        -4.6993240763        -7.2711832288
        0.3550000000        -1.2023504773         1.9133093107         1.1846997172         2.7380163199        -3.9679635098        -6.9029345603
        0.3600000000        -1.1313770711         1.9350434104         1.1795950634         2.7099456679        -4.1009381583        -6.4954620406
        0.3650000000        -1.0539749547         1.9586513531         1.1719380829         2.6997381580        -4.3004001310        -6.0510810099
        0.3700000000        -0.9705839424         1.9839766058         1.1642811023         2.6793231383        -4.4998621037        -5.5723165298
        0.3750000000        -0.8816778784         2.0108534965         1.1540717949         2.6716675060        -4.7658114006        -5.0618890357
        0.3800000000        -0.7877619449         2.0391086927         1.1566241217         2.6487006088        -4.6993240763        -4.5226988783
        0.3850000000        -0.6893697909         2.0685626735         1.1719380829         2.6282855892        -4.3004001310        -3.9578098437
        0.3900000000        -0.5870605003         2.0990311771         1.1770427366         2.6180780793        -4.1674254825        -3.3704317441
        0.3950000000        -0.4814154147         2.1303266064         1.1540717949         2.5976630597        -4.7658114006        -2.7639021789
        0.4000000000        -0.3730348307         2.1622593791         1.1719380829         2.5797999174        -4.3004001310        -2.1416675703
        0.4050000000        -0.2625345885         2.1946392112         1.1795950634         2.5670405302        -4.1009381583        -1.5072635793
        0.4100000000        -0.1505425723         2.2272763264         1.1719380829         2.5440736330        -4.3004001310        -0.8642950160
        0.4150000000        -0.0376951432         2.5000000000         1.1898043709         2.5415217556        -3.8349888614        -0.2164153559
        0.4200000000         0.0753664773         2.7271893370         1.1770427366         2.5134511035        -4.1674254825         0.4326940193
        0.4250000000         0.1879998503         2.7650636058         1.2025660052         2.5057954711        -3.5025522403         1.0793447408
        0.4300000000         0.2995649708         2.8023407309         1.2127753126         2.4879323289        -3.2366029434         1.7198624102
        0.4350000000         0.4094279033         2.8388220195         1.2280892737         2.4777248191        -2.8376789980         2.3506074783
        0.4400000000         0.5169643848         2.8743165124         1.2434032349         2.4649654318        -2.4387550526         2.9679959258
        0.4450000000         0.6215633715         2.9086416310         1.2587171960         2.4598616769        -2.0398311073         3.5685196284
        0.4500000000         0.7226305112         2.9416237406         1.2791358108         2.4522060445        -1.5079325135         4.1487662906
        0.4550000000         0.8195915201         2.9730986374         1.2995544257         2.4496541670        -0.9760339196         4.7054388352
        0.4600000000         0.9118954465         3.0029119670         1.3046590794         2.4368947797        -0.8430592712         5.2353741377
        0.4650000000         0.9990178012         3.0309195826         1.3276300211         2.4419985347        -0.2446733532         5.7355610000
        0.4700000000         1.0804635373         3.0569878491         1.3454963091         2.4419985347         0.2207379164         6.2031572605
        0.4750000000         1.1557698642         3.0809939006         1.3454963091         2.4394466572         0.2207379164         6.6355059441
        0.4800000000         1.2245088761         3.1028258567         1.3454963091         2.4471022896         0.2207379164         7.0301503593
        0.4850000000         1.2862899843         3.1223830028         1.3454963091         2.4445504121         0.2207379164         7.3848480578
        0.4900000000         1.3407621362         3.1395759401         1.3454963091         2.4445504121         0.2207379164         7.6975835765
        0.4950000000         1.3876158103         3.1543267085         1.3352870017         2.4394466572        -0.0452113805         7.9665798898
        0.5000000000         1.4265847744         3.1665688859         1.3480486360         2.4547579220         0.2872252407         8.1903085070
        0.5050000000         1.4574475994         3.1762476686         1.3250776943         2.4419985347        -0.3111606774         8.3674981575
        0.5100000000         1.4800289163         3.1833199326         1.3429439823         2.4522060445         0.1542505922         8.4971420143
        0.5150000000         1.4942004137         3.1877542810         1.3403916554         2.4471022896         0.0877632680         8.5785034152
        0.5200000000         1.4998815663         3.1895310762         1.3378393285         2.4471022896         0.0212759438         8.6111200485
        0.5250000000         1.4970400926         3.1886424603         1.3378393285         2.4445504121         0.0212759438         8.5948065799
        0.5300000000         1.4856921385         3.1850923624         1.3659149240         2.4496541670         0.7526365102         8.5296557058
        0.5350000000         1.4659021854         3.1788964952         1.4680079982         2.4598616769         3.4121294793         8.4160376265
        0.5400000000         1.4377826835         3.1700823389         1.5598917651         2.4751729416         5.8056731515         8.2545979427
        0.5450000000         1.4014934137         3.1586891127         1.5496824576         2.5057954711         5.5397238546         8.0462539866
        0.5500000000         1.3572405787         3.1447677334         1.5241591891         2.5160029810         4.8748506123         7.7921896104
        0.5550000000         1.3052756320         3.1283807580         1.5216068622         2.5389698781         4.8083632881         7.4938484585
        0.5600000000         1.2458938488         3.1096023109         1.5011882474         2.5568330203         4.2764646943         7.1529257647
        0.5650000000         1.1794326482         3.0885179903         1.4960835936         2.5721442851         4.1434900458         6.7713587199
        0.5700000000         1.1062696760         3.0652247542         1.5190545354         2.5976630597         4.7418759638         6.3513154641
        0.5750000000         1.0268206589         3.0398307793         1.5241591891         2.6104224470         4.8748506123         5.8951827668
        0.5800000000         0.9415370419         3.0124552920         1.5267115159         2.6359412215         4.9413379365         5.4055524652
        0.5850000000         0.8509034237         2.9832283640         1.5190545354         2.6538043638         4.7418759638         4.8852067361
        0.5900000000         0.7554348025         2.9522906697         1.5190545354         2.6640118736         4.7418759638         4.3371022878
        0.5950000000         0.6556736500         2.9197931979         1.5113975548         2.6742193834         4.5424139912         3.7643535592
        0.6000000000         0.5521868290         2.8858969127         1.5139498816         2.6997381580         4.6089013154         3.1702150228
        0.6050000000         0.4455623724         2.8507723555         1.5062929011         2.7227050552         4.4094393427         2.5580626922
        0.6100000000         0.3364061414         2.8145991825         1.5088452279         2.7380163199         4.4759266669         1.9313749391
        0.6150000000         0.2253383837         2.7775656269         1.5113975548         2.7507757072         4.5424139912         1.2937127284
        0.6200000000         0.1129902083         2.7398678810         1.5037405742         2.7686388494         4.3429520185         0.6486993838
        0.6250000000         0.0000000000         2.5000000000         1.4858742862         2.7788463592         3.8775407489         0.0000000000
        0.6300000000        -0.1129902083         2.2381799532         1.4884266131         2.8069170113         3.9440280731        -0.6486993838
        0.6350000000        -0.2253383837         2.2054989975         1.4731126519         2.8018132564         3.5451041278        -1.2937127284
        0.6400000000        -0.3364061414         2.1730123765         1.4501417102         2.8273320310         2.9467182097        -1.9313749391
        0.6450000000        -0.4455623724         2.1409094423         1.4297230954         2.8375395408         2.4148196159        -2.5580626922
        0.6500000000        -0.5521868290         2.1093804401         1.4118568074         2.8426432957         1.9494083463        -3.1702150228
        0.6550000000        -0.6556736500         2.0786153253         1.3914381925         2.8528508056         1.4175097525        -3.7643535592
        0.6600000000        -0.7554348025         2.0488025035         1.3684672508         2.8528508056         0.8191238345        -4.3371022878
        0.6650000000        -0.8509034237         2.0201275021         1.3608102703         2.8630583154         0.6196618618        -4.8852067361
