% f=2.30Hz  n_cycles=5  N_total=434  dt=0.005000
% Amp=400.00deg/s
Time[s]              OmegaCmd[deg/s]      Vc[V]                Vg[V]                Pot[V]               Omega[rad/s]         Omega_target[rad/s] 
        0.0000000000         0.0000000000         2.4974092728         1.3352870017         1.8040291699        -0.0691468172         0.0000000000
        0.0050000000        28.8775087531         2.7290757767         1.3378393285         1.8040291699        -0.0026594930         0.5040076075
        0.0100000000        57.6043130209         2.7641769397         1.3327346748         1.8014772924        -0.1356341414         1.0053849256
        0.0150000000        86.0304948068         2.7981851567         1.3403916554         1.8065810474         0.0638278313         1.5015153915
        0.0200000000       114.0077049880         2.8309768116         1.3378393285         1.8040291699        -0.0026594930         1.9898098247
        0.0250000000       141.3899375117         2.8624481139         1.3429439823         1.8116848023         0.1303151555         2.4677199388
        0.0300000000       168.0342913647         2.8925125299         1.3378393285         1.8040291699        -0.0026594930         2.9327516406
        0.0350000000       193.8017163378         2.9210977467         1.3327346748         1.7989254150        -0.1356341414         3.3824780461
        0.0400000000       218.5577386937         2.9481424084         1.3301823480         1.7989254150        -0.2021214656         3.8145521459
        0.0450000000       242.1731629524         2.9735928685         1.3352870017         1.8065810474        -0.0691468172         4.2267190535
        0.0500000000       264.5247461295         2.9974001927         1.3403916554         1.8040291699         0.0638278313         4.6168277730
        0.0550000000       285.4958409106         3.0195176171         1.3429439823         1.8142366797         0.1303151555         4.9828424246
        0.0600000000       304.9770044046         3.0398986229         1.3327346748         1.8014772924        -0.1356341414         5.3228528697
        0.0650000000       322.8665692986         3.0584957340         1.3403916554         1.8040291699         0.0638278313         5.6350846789
        0.0700000000       339.0711744340         3.0752600802         1.3454963091         1.8091329248         0.1968024797         5.9179083925
        0.0750000000       353.5062520355         3.0901417072         1.3378393285         1.8065810474        -0.0026594930         6.1698480244
        0.0800000000       366.0964690484         3.1030905494         1.3352870017         1.8040291699        -0.0691468172         6.3895887648
        0.0850000000       376.7761202835         3.1140579343         1.3480486360         1.8116848023         0.2632898039         6.5759838418
        0.0900000000       385.4894713160         3.1229984414         1.3378393285         1.8040291699        -0.0026594930         6.7280605062
        0.0950000000       392.1910493492         3.1298719181         1.3301823480         1.7989254150        -0.2021214656         6.8450251080
        0.1000000000       396.8458805258         3.1346454453         1.3352870017         1.8065810474        -0.0691468172         6.9262672382
        0.1050000000       399.4296724478         3.1372950573         1.3429439823         1.8065810474         0.1303151555         6.9713629144
        0.1100000000       399.9289409523         3.1378070473         1.3301823480         1.8065810474        -0.2021214656         6.9800767936
        0.1150000000       398.3410804821         3.1361787329         1.4041998268         1.8116848023         1.7260109369         6.9523634004
        0.1200000000       394.6743776831         3.1324186071         1.5113975548         1.8244441896         4.5184785544         6.8883673638
        0.1250000000       388.9479681591         3.1265458613         1.5420254771         1.8448592093         5.3163264452         6.7884226633
        0.1300000000       381.1917366069         3.1185893250         1.5292638428         1.8627223515         4.9838898240         6.6530508852
        0.1350000000       371.4461608564         3.1085859259         1.5216068622         1.8856892486         4.7844278514         6.4829585008
        0.1400000000       359.7621006265         3.0965788182         1.5011882474         1.8984486359         4.2525292575         6.2790331798
        0.1450000000       346.2005321012         3.0826153656         1.4935312668         1.9061042683         4.0530672849         6.0423391573
        0.1500000000       330.8322297098         3.0667451813         1.5165022085         1.9316230429         4.6514532029         5.7741116802
        0.1550000000       313.7373967734         3.0490184306         1.5369208233         1.9520380625         5.1833517967         5.4757505603
        0.1600000000       295.0052469433         3.0294845842         1.5011882474         1.9596936949         4.2525292575         5.1488128698
        0.1650000000       274.7335386178         3.0081917774         1.5113975548         1.9852124695         4.5184785544         4.7950048145
        0.1700000000       253.0280647653         2.9851868838         1.5165022085         1.9928681019         4.6514532029         4.4161728301
        0.1750000000       230.0021008173         2.9605163525         1.5216068622         2.0209387539         4.7844278514         4.0142939458
        0.1800000000       205.7758135126         2.9342277973         1.5088452279         2.0388018961         4.4519912302         3.5914654668
        0.1850000000       180.4756337767         2.9063722608         1.5037405742         2.0541131609         4.3190165818         3.1498940290
        0.1900000000       154.2335969110         2.8770070169         1.5088452279         2.0694244256         4.4519912302         2.6918840833
        0.1950000000       127.1866535330         2.8461987261         1.5113975548         2.0923913228         4.5184785544         2.2198258687
        0.2000000000        99.4759548659         2.8140267224         1.5037405742         2.1077025875         4.3190165818         1.7361829390
        0.2050000000        71.2461161057         2.7805861886         1.4884266131         2.1230138523         3.9200926364         1.2434793053
        0.2100000000        42.6444617101         2.7459909766         1.4909789399         2.1383251170         3.9865799606         0.7442862646
        0.2150000000        13.8202565498         2.6498927775         1.4960835936         2.1536363818         4.1195546091         0.2412089803
        0.2200000000       -15.0760730680         2.3310699252         1.4884266131         2.1766032789         3.9200926364        -0.2631271133
        0.2250000000       -43.8937244364         2.2423387344         1.4680079982         2.1842589113         3.3881940426        -0.7660900124
        0.2300000000       -72.4823054509         2.2027752387         1.4475893834         2.1995701761         2.8562954488        -1.2650548796
        0.2350000000      -100.6926194674         2.1652996767         1.4271707685         2.2123295633         2.3243968550        -1.7574177422
        0.2400000000      -128.3774439229         2.1298879175         1.4067521537         2.2199851957         1.7924982612        -2.2406090817
        0.2450000000      -155.3922986525         2.0965022769         1.3939905194         2.2225370732         1.4600616400        -2.7121072437
        0.2500000000      -181.5961998958         2.0650987786         1.3710195777         2.2148814408         0.8616757220        -3.1694515973
        0.2550000000      -206.8523960553         2.0356335722         1.3429439823         2.2225370732         0.1303151555        -3.6102553768
        0.2600000000      -231.0290813689         2.0080682789         1.3250776943         2.2174333183        -0.3350961141        -4.0322181377
        0.2650000000      -254.0000837715         1.9823741067         1.3276300211         2.2148814408        -0.2686087899        -4.4331377622
        0.2700000000      -275.6455233549         1.9585346459         1.3429439823         2.2225370732         0.1303151555        -4.8109219509
        0.2750000000      -295.8524379914         1.9365473300         1.3429439823         2.2276408281         0.1303151555        -5.1635991430
        0.2800000000      -314.5153728546         1.9164236123         1.3378393285         2.2199851957        -0.0026594930        -5.4893288045
        0.2850000000      -331.5369307619         1.8981879753         1.3301823480         2.2148814408        -0.2021214656        -5.7864110338
        0.2900000000      -346.8282804658         1.8818759396         1.3327346748         2.2148814408        -0.1356341414        -6.0532954332
        0.2950000000      -360.3096202422         1.8675312846         1.3301823480         2.2148814408        -0.2021214656        -6.2885891998
        0.3000000000      -371.9105943553         1.8552027208         1.3352870017         2.2225370732        -0.0691468172        -6.4910643945
        0.3050000000      -381.5706602270         1.8449402736         1.3378393285         2.2250889506        -0.0026594930        -6.6596643500
        0.3100000000      -389.2394043929         1.8367916371         1.3301823480         2.2148814408        -0.2021214656        -6.7935091852
        0.3150000000      -394.8768055979         1.8307987493         1.3352870017         2.2225370732        -0.0691468172        -6.8919003974
        0.3200000000      -398.4534436573         1.8269948153         1.3403916554         2.2225370732         0.0638278313        -6.9543245077
        0.3250000000      -399.9506529927         1.8254019700         1.3327346748         2.2225370732        -0.1356341414        -6.9804557402
        0.3300000000      -399.3606200436         1.8260297288         1.3301823480         2.2199851957        -0.2021214656        -6.9701577226
        0.3350000000      -396.6864240442         1.8288743242         1.2331939274         2.2174333183        -2.7286397863        -6.9234841975
        0.3400000000      -391.9420209537         1.8339189679         1.1259961995         2.1893626662        -5.5211074038        -6.8406787426
        0.3450000000      -385.1521706234         1.8411350243         1.1413101606         2.1817070338        -5.1221834584        -6.7221734986
        0.3500000000      -376.3523075817         1.8504840202         1.1642811023         2.1612920142        -4.5237975404        -6.5685869148
        0.3550000000      -365.5883561096         1.8619203647         1.1566241217         2.1332213621        -4.7232595131        -6.3807205211
        0.3600000000      -352.9164905740         1.8753946056         1.1898043709         2.1281176072        -3.8589242981        -6.1595547451
        0.3650000000      -338.4028422671         1.8908570085         1.1617287755         2.0974950777        -4.5902848646        -5.9062437957
        0.3700000000      -322.1231542844         1.9082612182         1.1566241217         2.0898394453        -4.7232595131        -5.6221096392
        0.3750000000      -304.1623862400         1.9275677439         1.1770427366         2.0770800580        -4.1913609193        -5.3086351006
        0.3800000000      -284.6142708837         1.9487470076         1.1642811023         2.0541131609        -4.5237975404        -4.9674561251
        0.3850000000      -263.5808249335         1.9717817062         1.1617287755         2.0439056511        -4.5902848646        -4.6003532402
        0.3900000000      -241.1718166756         1.9966682605         1.1668334292         2.0183868765        -4.4573102162        -4.2092422640
        0.3950000000      -217.5041931115         2.0234171636         1.1668334292         1.9954199793        -4.4573102162        -3.7961643067
        0.4000000000      -192.7014696407         2.0520520883         1.1693857560         1.9826605920        -4.3908228919        -3.3632751187
        0.4050000000      -166.8930854647         2.0826076748         1.1719380829         1.9699012047        -4.3243355677        -2.9128338402
        0.4100000000      -140.2137280765         2.1151259817         1.1821473903         1.9596936949        -4.0583862708        -2.4471912114
        0.4150000000      -112.8026303601         2.1496516608         1.1770427366         1.9290711654        -4.1913609193        -1.9687773047
        0.4200000000       -84.8028439688         2.1862259807         1.1795950634         1.9163117781        -4.1248735950        -1.4800888423
        0.4250000000       -56.3604927750         2.2248799002         1.1923566977         1.9035523908        -3.7924369739        -0.9836761670
        0.4300000000       -27.6240102858         2.2656264530         1.1872520440         1.8933448810        -3.9254116223        -0.4821299321
        0.4350000000         1.2566349943         2.5112741462         1.2051183320         1.8882411261        -3.4600003528         0.0219324181
        0.4400000000        30.1307222112         2.7306227497         1.2102229857         1.8678261064        -3.3270257043         0.5258803086
        0.4450000000        58.8475647355         2.7656792533         1.2306416006         1.8627223515        -2.7951271105         1.0270837614
        0.4500000000        87.2572965586         2.7996369955         1.2459555617         1.8474110867        -2.3962031651         1.5229271213
        0.4550000000       115.2116544059         2.8323732672         1.2867927914         1.8423073318        -1.3324059775         2.0108227061
        0.4600000000       142.5647514853         2.8637850858         1.2918974451         1.8346516994        -1.1994313290         2.4882243107
        0.4650000000       169.1738388341         2.8937866015         1.3123160600         1.8295479445        -0.6675327352         2.9526404959
        0.4700000000       194.9000502901         2.9223060464         1.3301823480         1.8295479445        -0.2021214656         3.4016475899
        0.4750000000       219.6091271993         2.9492824664         1.3506009628         1.8372035769         0.3297771282         3.8329023371
        0.4800000000       243.1721190778         2.9746624795         1.3327346748         1.8244441896        -0.1356341414         4.2441541270
        0.4850000000       265.4660565730         2.9983972946         1.3378393285         1.8295479445        -0.0026594930         4.6332567395
        0.4900000000       286.3745932087         3.0204401936         1.3327346748         1.8295479445        -0.1356341414         4.9981795456
        0.4950000000       305.7886125692         3.0407446356         1.3378393285         1.8295479445        -0.0026594930         5.3370181044
        0.5000000000       323.6067977500         3.0592630874         1.3378393285         1.8295479445        -0.0026594930         5.6480041026
        0.5050000000       339.7361601053         3.0759466202         1.3352870017         1.8320998220        -0.0691468172         5.9295145819
        0.5100000000       354.0925245330         3.0907452500         1.3352870017         1.8295479445        -0.0691468172         6.1800804098
        0.5150000000       366.6009687628         3.1036089374         1.3378393285         1.8295479445        -0.0026594930         6.3983939459
        0.5200000000       377.1962143571         3.1144891108         1.3454963091         1.8372035769         0.1968024797         6.5833158666
        0.5250000000       385.8229673831         3.1233405363         1.3327346748         1.8320998220        -0.1356341414         6.7338811107
        0.5300000000       392.4362069773         3.1301233362         1.3429439823         1.8372035769         0.1303151555         6.8493039158
        0.5350000000       397.0014202987         3.1348049474         1.3327346748         1.8218923121        -0.1356341414         6.9289819193
        0.5400000000       399.4947826424         3.1373618264         1.3403916554         1.8346516994         0.0638278313         6.9724993016
        0.5450000000       399.9032817748         3.1377807343         1.3429439823         1.8372035769         0.1303151555         6.9796289565
        0.5500000000       398.2247858412         3.1360594759         1.3608102703         1.8372035769         0.5957264251         6.9503336760
        0.5550000000       394.4680544916         3.1322070237         1.4041998268         1.8372035769         1.7260109369         6.8847663448
        0.5600000000       388.6526931659         3.1262430142         1.5037405742         1.8499629642         4.3190165818         6.7832691425
        0.5650000000       380.8090507783         3.1181966640         1.5573394382         1.8729298613         5.7152503905         6.6463717575
        0.5700000000       370.9780613339         3.1081052121         1.5394731502         1.8831373711         5.2498391209         6.4747886229
        0.5750000000       359.2110303042         3.0960120382         1.5165022085         1.9035523908         4.6514532029         6.2694151883
        0.5800000000       345.5693668771         3.0819646431         1.4960835936         1.9214155330         4.1195546091         6.0313232460
        0.5850000000       330.1242634772         3.0660126967         1.5062929011         1.9418305527         4.3855039060         5.7617553384
        0.5900000000       312.9563242306         3.0482063563         1.5113975548         1.9545899400         4.5184785544         5.4621182728
        0.5950000000       294.1551443124         3.0285950429         1.5216068622         1.9775568371         4.7844278514         5.1339757799
        0.6000000000       273.8188423715         3.0072268301         1.5062929011         1.9826605920         4.3855039060         4.7790403534
        0.6050000000       252.0535484742         2.9841485498         1.5139498816         2.0081793666         4.5849658787         4.3991643122
        0.6100000000       228.9728502378         2.9594066636         1.5088452279         2.0158349990         4.4519912302         3.9963301343
        0.6150000000       204.6972000457         2.9330488830         1.5062929011         2.0490094060         4.3855039060         3.5726401104
        0.6200000000       179.3532864360         2.9051264597         1.5037405742         2.0566650383         4.3190165818         3.1303053726
        0.6250000000       153.0733729460         2.8756970084         1.5113975548         2.0770800580         4.5184785544         2.6716343550
        0.6300000000       125.9946078621         2.8448276723         1.5011882474         2.0872875679         4.2525292575         2.1990207470
        0.6350000000        98.2583084770         2.8125984102         1.4986359205         2.1077025875         4.1860419333         1.7149310004
        0.6400000000        70.0092235901         2.7791051613         1.4884266131         2.1179100974         3.9200926364         1.2218914584
        0.6450000000        41.3947781002         2.7444626450         1.4807696325         2.1383251170         3.7206306637         0.7224751710
        0.6500000000        12.5643036313         2.6360354296         1.4884266131         2.1536363818         3.9200926364         0.2192884666
        0.6550000000       -16.3317407914         2.3172157240         1.4807696325         2.1689476465         3.7206306637        -0.2850426494
        0.6600000000       -45.1425539494         2.2405750362         1.4654556714         2.1766032789         3.3217067184        -0.7878861992
        0.6650000000       -73.7177794249         2.2011025606         1.4424847297         2.1868107888         2.7233208003        -1.2866179682
