% f=4.70Hz  n_cycles=5  N_total=212  dt=0.005000
% Amp=1.5000V  K_lin=5.741200
Time[s]              Vcmd[V]              Vc[V]                Vg[V]                Pot[V]               Omega[rad/s]         Omega_target[rad/s] 
        0.0000000000         0.0000000000         2.5000000000         1.3378393285         2.8273320310         0.0212759438         0.0000000000
        0.0050000000         0.2206783678         2.7760067614         1.3352870017         2.8247801535        -0.0452113805         1.2669586450
        0.0100000000         0.4365542502         2.8477954347         1.3378393285         2.8222282761         0.0212759438         2.5063452615
        0.0150000000         0.6429296757         2.9156292528         1.3378393285         2.8273320310         0.0212759438         3.6911878539
        0.0200000000         0.8353134247         2.9781869332         1.3378393285         2.8273320310         0.0212759438         4.7957014341
        0.0250000000         1.0095187703         3.0342867983         1.3276300211         2.8171245211        -0.2446733532         5.7958491638
        0.0300000000         1.1617545903         3.0828977320         1.3403916554         2.8247801535         0.0877632680         6.6698654538
        0.0350000000         1.2887078719         3.1231471567         1.3429439823         2.8324357859         0.1542505922         7.3987296342
        0.0400000000         1.3876158103         3.1543267085         1.3429439823         2.8273320310         0.1542505922         7.9665798898
        0.0450000000         1.4563259337         3.1758961666         1.3429439823         2.8247801535         0.1542505922         8.3610584507
        0.0500000000         1.4933429469         3.1874860627         1.3327346748         2.8222282761        -0.1116987047         8.5735805268
        0.0550000000         1.4978612717         3.1888992810         1.3480486360         2.8349876633         0.2872252407         8.5995211330
        0.0600000000         1.4697825786         3.1801118530         1.3403916554         2.8273320310         0.0877632680         8.4383157401
        0.0650000000         1.4097179266         3.1612730512         1.3301823480         2.8222282761        -0.1781860289         8.0934725604
        0.0700000000         1.3189744653         3.1327047947         1.3429439823         2.8298839084         0.1542505922         7.5724962001
        0.0750000000         1.1995269877         3.0949002885         1.3403916554         2.8298839084         0.0877632680         6.8867243420
        0.0800000000         1.0539749547         3.0485217186         1.3378393285         2.8273320310         0.0212759438         6.0510810099
        0.0850000000         0.8854859240         2.9943967265         1.3378393285         2.8298839084         0.0212759438         5.0837517871
        0.0900000000         0.6977266171         2.9335132655         1.3378393285         2.8273320310         0.0212759438         4.0057880542
        0.0950000000         0.4947831223         2.8670123244         1.3352870017         2.8247801535        -0.0452113805         2.8406488617
        0.1000000000         0.2810719719         2.7961778692         1.3480486360         2.8349876633         0.2872252407         1.6136904049
        0.1050000000         0.0612440280         2.7224232402         1.4144091342         2.8349876633         2.0158956706         0.3516142134
        0.1100000000        -0.1599167314         2.2245513460         1.5471301308         2.8528508056         5.4732365303        -0.9181139384
        0.1150000000        -0.3775973230         2.1609186022         1.5445778039         2.8783695801         5.4067492061        -2.1678617508
        0.1200000000        -0.5870605003         2.0990311771         1.5062929011         2.8834733351         4.4094393427        -3.3704317441
        0.1250000000        -0.7837478471         2.0403132711         1.4960835936         2.9089921097         4.1434900458        -4.4996531396
        0.1300000000        -0.9633789798         1.9861594269         1.4756649788         2.9243033744         3.6115914520        -5.5309513986
        0.1350000000        -1.1220446984         1.9378950416         1.4373800759         2.9294071293         2.6142815886        -6.4418830222
        0.1400000000        -1.2562920601         1.8967346047         1.4399324028         2.9498221490         2.6807689128        -7.2126239752
        0.1450000000        -1.3631995235         1.8637396367         1.4067521537         2.9574777814         1.8164336979        -7.8264011045
        0.1500000000        -1.4404405285         1.8397788341         1.3531532897         2.9498221490         0.4201998891        -8.2698571623
        0.1550000000        -1.4863341273         1.8254932343         1.3454963091         2.9574777814         0.2207379164        -8.5333414918
        0.1600000000        -1.4998815663         1.8212691952         1.3301823480         2.9625815363        -0.1781860289        -8.6111200485
        0.1650000000        -1.4807880210         1.8272215610         1.3174207137         2.9600296588        -0.5106226501        -8.5015001861
        0.1700000000        -1.4294690123         1.8431885772         1.3352870017         2.9574777814        -0.0452113805        -8.2068674933
        0.1750000000        -1.3470413636         1.8687390416         1.3352870017         2.9549259039        -0.0452113805        -7.7336338769
        0.1800000000        -1.2352988964         1.9031910097         1.3301823480         2.9549259039        -0.1781860289        -7.0920980243
        0.1850000000        -1.0966733921         1.9456403293         1.3352870017         2.9549259039        -0.0452113805        -6.2962212787
        0.1900000000        -0.9341816707         1.9949965326         1.3327346748         2.9549259039        -0.1116987047        -5.3633238080
        0.1950000000        -0.7513599380         2.0500232612         1.3429439823         2.9600296588         0.1542505922        -4.3137076763
        0.2000000000        -0.5521868290         2.1093804401         1.2765834840         2.9396146392        -1.5744198377        -3.1702150228
        0.2050000000        -0.3409968235         2.1716657764         1.1208915457         2.9268552519        -5.6301466155        -1.9577309629
        0.2100000000        -0.1223859174         2.2354537068         1.1566241217         2.9140958646        -4.6993240763        -0.7026420287
        0.2150000000         0.0988883969         2.7351190206         1.1846997172         2.9038883547        -3.9679635098         0.5677380644
        0.2200000000         0.3180106649         2.8084814686         1.1949090246         2.8834733351        -3.7020142129         1.8257628292
        0.2250000000         0.5302122657         2.8786747514         1.2204322931         2.8707139478        -3.0371409707         3.0440546597
        0.2300000000         0.7308751886         2.9443064109         1.2382985811         2.8579545605        -2.5717297011         4.1961006327
        0.2350000000         0.9156325320         3.0041159651         1.2740311571         2.8579545605        -1.6409071619         5.2568294926
        0.2400000000         1.0804635373         3.0569878491         1.3148683868         2.8528508056        -0.5771099743         6.2031572605
        0.2450000000         1.2217810906         3.1019609491         1.3276300211         2.8477470506        -0.2446733532         7.0144895974
        0.2500000000         1.3365097863         3.1382354734         1.3480486360         2.8477470506         0.2872252407         7.6731699850
        0.2550000000         1.4221528555         3.1651777876         1.3506009628         2.8554026830         0.3537125649         8.1648639741
        0.2600000000         1.4768465018         3.1823237080         1.3327346748         2.8426432957        -0.1116987047         8.4788711361
        0.2650000000         1.4994004615         3.1893806288         1.3454963091         2.8554026830         0.2207379164         8.6083579294
        0.2700000000         1.4893239069         3.1862287428         1.3403916554         2.8451951732         0.0877632680         8.5505064140
        0.2750000000         1.4468361277         3.1729215157         1.3454963091         2.8502989281         0.2207379164         8.3065755763
        0.2800000000         1.3728617589         3.1496854763         1.3429439823         2.8528508056         0.1542505922         7.8818739304
        0.2850000000         1.2690106585         3.1169192949         1.3403916554         2.8528508056         0.0877632680         7.2856439926
        0.2900000000         1.1375428729         3.0751920284         1.3403916554         2.8528508056         0.0877632680         6.5308611421
        0.2950000000         0.9813194534         3.0252403116         1.3301823480         2.8451951732        -0.1781860289         5.6339512459
        0.3000000000         0.8037401925         2.9679641639         1.3454963091         2.8579545605         0.2207379164         4.6144331930
        0.3050000000         0.6086696365         2.9044209649         1.3327346748         2.8477470506        -0.1116987047         3.4944941171
        0.3100000000         0.4003529840         2.8358170222         1.3454963091         2.8605064379         0.2207379164         2.2985065516
        0.3150000000         0.1833236999         2.7634960301         1.3352870017         2.8451951732        -0.0452113805         1.0524980259
        0.3200000000        -0.0376951432         2.5000000000         1.4118568074         2.8579545605         1.9494083463        -0.2164153559
        0.3250000000        -0.2578936504         2.1959952656         1.5394731502         2.8758177027         5.2737745577        -1.4806190258
        0.3300000000        -0.4724797795         2.1329659511         1.5267115159         2.8987845998         4.9413379365        -2.7126009100
        0.3350000000        -0.6767836267         2.0723195756         1.4884266131         2.9038883547         3.9440280731        -3.8855501574
        0.3400000000        -0.8663590551         2.0154717596         1.4807696325         2.9268552519         3.7445661004        -4.9739406073
        0.3450000000        -1.0370804534         1.9637912056         1.4501417102         2.9294071293         2.9467182097        -5.9540862992
        0.3500000000        -1.1852325186         1.9185589874         1.4373800759         2.9523740265         2.6142815886        -6.8046569356
        0.3550000000        -1.3075911098         1.8809263763         1.3965428462         2.9498221490         1.5504844010        -7.5071420796
        0.3600000000        -1.4014934137         1.8518734304         1.3633625971         2.9523740265         0.6861491860        -8.0462539866
        0.3650000000        -1.4648958931         1.8321710273         1.3378393285         2.9600296588         0.0212759438        -8.4102603014
        0.3700000000        -1.4964187595         1.8223491912         1.3225253674         2.9625815363        -0.3776480016        -8.5912393823
        0.3750000000        -1.4953760006         1.8226743704         1.3301823480         2.9498221490        -0.1781860289        -8.5852526946
        0.3800000000        -1.4617903092         1.8331377195         1.3378393285         2.9574777814         0.0212759438        -8.3924305231
        0.3850000000        -1.3963925897         1.8534554915         1.3429439823         2.9651334138         0.1542505922        -8.0169691358
        0.3900000000        -1.3006060517         1.8830815026         1.3327346748         2.9549259039        -0.1116987047        -7.4670394643
        0.3950000000        -1.1765152379         1.9212304959         1.3429439823         2.9625815363         0.1542505922        -6.7546092838
        0.4000000000        -1.0268206589         1.9669102993         1.3352870017         2.9574777814        -0.0452113805        -5.8951827668
        0.4050000000        -0.8547800242         2.0189600979         1.3327346748         2.9574777814        -0.1116987047        -4.9074630750
        0.4100000000        -0.6641373466         2.0760919695         1.3327346748         2.9574777814        -0.1116987047        -3.8129453341
        0.4150000000        -0.4590414633         2.1369330268         1.3072114063         2.9549259039        -0.7765719470        -2.6354488490
        0.4200000000        -0.2439557478         2.2000659705         1.1413101606         2.9345108842        -5.0982480217        -1.4005987392
        0.4250000000        -0.0235609760         2.5000000000         1.1515194680         2.9268552519        -4.8322987248        -0.1352682752
        0.4300000000         0.1973465386         2.7681956293         1.1719380829         2.9013364773        -4.3004001310         1.1330059476
        0.4350000000         0.4139593240         2.8403219534         1.1821473903         2.8911289674        -4.0344508341         2.3766232708
        0.4400000000         0.6215633715         2.9086416310         1.2204322931         2.8834733351        -3.0371409707         3.5685196284
        0.4450000000         0.8156407242         2.9718193211         1.2408509080         2.8732658252        -2.5052423769         4.6827565256
        0.4500000000         0.9919677980         3.0286579144         1.2740311571         2.8630583154        -1.6409071619         5.6950855218
        0.4550000000         1.1467072971         3.0781098523         1.2995544257         2.8579545605        -0.9760339196         6.5834759343
        0.4600000000         1.2764917227         3.1192853862         1.3327346748         2.8579545605        -0.1116987047         7.3285942783
        0.4650000000         1.3784966574         3.1514584696         1.3454963091         2.8477470506         0.2207379164         7.9142250094
        0.4700000000         1.4505022316         3.1740708496         1.3531532897         2.8554026830         0.4201998891         8.3276234123
        0.4750000000         1.4909414332         3.1867348011         1.3403916554         2.8554026830         0.0877632680         8.5597929562
        0.4800000000         1.4989342090         3.1892348224         1.3480486360         2.8554026830         0.2872252407         8.6056810805
        0.4850000000         1.4743066172         3.1815285086         1.3429439823         2.8630583154         0.1542505922         8.4642891507
        0.4900000000         1.4175946128         3.1637467182         1.3327346748         2.8502989281        -0.1116987047         8.1386941908
        0.4950000000         1.3300323836         3.1361930539         1.3327346748         2.8502989281        -0.1116987047         7.6359819204
        0.5000000000         1.2135254916         3.0993425897         1.3301823480         2.8528508056        -0.1781860289         6.9670925522
        0.5050000000         1.0706094034         3.0538396783         1.3378393285         2.8554026830         0.0212759438         6.1465827069
        0.5100000000         0.9043943125         3.0004945717         1.3454963091         2.8630583154         0.2207379164         5.1923086271
        0.5150000000         0.7184974540         2.9402784725         1.3301823480         2.8502989281        -0.1781860289         4.1250375827
        0.5200000000         0.5169643848         2.8743165124         1.3352870017         2.8502989281        -0.0452113805         2.9679959258
        0.5250000000         0.3041809430         2.8038780247         1.3454963091         2.8630583154         0.2207379164         1.7463636302
        0.5300000000         0.0847778017         2.7303633576         1.3659149240         2.8554026830         0.7526365102         0.4867263153
        0.5350000000        -0.1364703059         2.2313646607         1.5037405742         2.8732658252         4.3429520185        -0.7835033200
        0.5400000000        -0.3547484955         2.1676301097         1.5394731502         2.8911289674         5.2737745577        -2.0366820626
        0.5450000000        -0.5653065156         2.1054891417         1.4960835936         2.9013364773         4.1434900458        -3.2455377675
        0.5500000000        -0.7635621236         2.0463669296         1.4884266131         2.9294071293         3.9440280731        -4.3837628642
        0.5550000000        -0.9452008068         1.9916629933         1.4577986908         2.9370627617         3.1461801824        -5.4265868719
        0.5600000000        -1.1062696760         1.9427120457         1.4373800759         2.9498221490         2.6142815886        -6.3513154641
        0.5650000000        -1.2432634904         1.9007423879         1.4169614611         2.9625815363         2.0823829948        -7.1378243508
        0.5700000000        -1.3532009391         1.8668337698         1.3786765582         2.9600296588         1.0850731314        -7.7689972313
        0.5750000000        -1.4336895222         1.8418771686         1.3480486360         2.9651334138         0.2872252407        -8.2310982848
        0.5800000000        -1.4829776171         1.8265392840         1.3301823480         2.9702371687        -0.1781860289        -8.5140710953
        0.5850000000        -1.4999925978         1.8212345627         1.3250776943         2.9549259039        -0.3111606774        -8.6117575025
        0.5900000000        -1.4843641779         1.8261071890         1.3480486360         2.9727890461         0.2872252407        -8.5220316182
        0.5950000000        -1.4364324689         1.8410247068         1.3403916554         2.9625815363         0.0877632680        -8.2468460907
        0.6000000000        -1.3572405787         1.8655838809         1.3352870017         2.9625815363        -0.0452113805        -7.7921896104
        0.6050000000        -1.2485119108         1.8991282389         1.3352870017         2.9625815363        -0.0452113805        -7.1679565821
        0.6100000000        -1.1126126591         1.9407756678         1.3429439823         2.9702371687         0.1542505922        -6.3877317985
        0.6150000000        -0.9525003141         1.9894536548         1.3352870017         2.9651334138        -0.0452113805        -5.4684948036
        0.6200000000        -0.7716593007         2.0439393658         1.3378393285         2.9676852912         0.0212759438        -4.4302503770
        0.6250000000        -0.5740251485         2.1029017575         1.3250776943         2.9651334138        -0.3111606774        -3.2955931828
        0.6300000000        -0.3638988462         2.1649432473         1.2025660052         2.9498221490        -3.5025522403        -2.0892160558
        0.6350000000        -0.1458532409         2.2286390029         1.1336531800         2.9370627617        -5.2977099944        -0.8373726266
        0.6400000000         0.0753664773         2.7271893370         1.1744904097         2.9115439871        -4.2339128068         0.4326940193
        0.6450000000         0.2949460419         2.8008020543         1.2000136783         2.9064402322        -3.5690395645         1.6933442159
        0.6500000000         0.5081068804         2.8714008411         1.2000136783         2.8809214576        -3.5690395645         2.9171432216
        0.6550000000         0.7102101066         2.9375801282         1.2408509080         2.8809214576        -2.5052423769         4.0774582641
        0.6600000000         0.8968574746         2.9980647113         1.2587171960         2.8656101929        -2.0398311073         5.1490381331
        0.6650000000         1.0639870944         3.0517231025         1.2714788303         2.8656101929        -1.7073944861         6.1085627061
