% f=2.20Hz  n_cycles=5  N_total=454  dt=0.005000
% Amp=1.0000V  K_lin=8.382100
Time[s]              Vcmd[V]              Vc[V]                Vg[V]                Pot[V]               Omega[rad/s]         Omega_target[rad/s] 
        0.0000000000         0.0000000000         2.5000000000         1.3327346748         1.8142366797        -0.1190123104         0.0000000000
        0.0050000000         0.0690600257         2.7720969970         1.3327346748         1.8167885572        -0.1190123104         0.5788680415
        0.0100000000         0.1377902907         2.8049412055         1.3352870017         1.8193404347        -0.0525249861         1.1549719955
        0.0150000000         0.2058626088         2.8378715591         1.3454963091         1.8244441896         0.2134243108         1.7255609730
        0.0200000000         0.2729519355         2.8707310989         1.3327346748         1.8116848023        -0.1190123104         2.2879104187
        0.0250000000         0.3387379202         2.9033572462         1.3352870017         1.8193404347        -0.0525249861         2.8393351213
        0.0300000000         0.4029064357         2.9355823132         1.3378393285         1.8218923121         0.0139623381         3.3772020348
        0.0350000000         0.4651510781         2.9672341527         1.3352870017         1.8167885572        -0.0525249861         3.8989428516
        0.0400000000         0.5251746300         2.9981369654         1.3429439823         1.8193404347         0.1469369865         4.4020662658
        0.0450000000         0.5826904797         3.0281122829         1.4475893834         1.8218923121         2.8729172798         4.8841698696
        0.0500000000         0.6374239897         3.0569801396         1.3965428462         1.8244441896         1.5431707953         5.3429516245
        0.0550000000         0.6891138084         3.0845604443         1.3735719045         1.8320998220         0.9447848773         5.7762208533
        0.0600000000         0.7375131174         3.1106745551         1.4450370565         1.8397554543         2.8064299556         6.1819087010
        0.0650000000         0.7823908106         3.1351470533         1.4731126519         1.8550667191         3.5377905221         6.5580780133
        0.0700000000         0.8235325976         3.1578077011         1.4348277491         1.8601704740         2.5404806587         6.9029325866
        0.0750000000         0.8607420270         3.1784935552         1.4731126519         1.8754817388         3.5377905221         7.2148257445
        0.0800000000         0.8938414242         3.1970511969         1.4577986908         1.8882411261         3.1388665767         7.4922682014
        0.0850000000         0.9226727399         3.2133390228         1.4884266131         1.9010005134         3.9367144675         7.7339351729
        0.0900000000         0.9470983050         3.2272295309         1.4960835936         1.9214155330         4.1361764401         7.9386727023
        0.0950000000         0.9670014878         3.2386115232         1.4833219594         1.9341749203         3.8037398190         8.1055031706
        0.1000000000         0.9822872507         3.2473921415         1.4909789399         1.9418305527         4.0032017917         8.2336299643
        0.1050000000         0.9928826046         3.2534986516         1.5394731502         1.9699012047         5.2664609520         8.3224412798
        0.1100000000         0.9987369566         3.2568798951         1.5037405742         1.9775568371         4.3356384128         8.3715130440
        0.1150000000         0.9998223524         3.2575073392         1.5292638428         1.9954199793         5.0005116551         8.3806109399
        0.1200000000         0.9961336091         3.2553756729         1.5062929011         2.0107312441         4.4021257370         8.3496915252
        0.1250000000         0.9876883406         3.2505029189         1.5241591891         2.0336981412         4.8675370066         8.2789024397
        0.1300000000         0.9745268728         3.2429300551         1.5190545354         2.0439056511         4.7345623582         8.1685817004
        0.1350000000         0.9567120516         3.2327201657         1.5267115159         2.0745281806         4.9340243309         8.0192560874
        0.1400000000         0.9343289425         3.2199571647         1.5445778039         2.0974950777         5.3994356004         7.8316386286
        0.1450000000         0.9074844245         3.2047441529         1.5343684965         2.1077025875         5.1334863035         7.6066251949
        0.1500000000         0.8763066800         3.1872014866         1.5318161696         2.1281176072         5.0669989793         7.3452902228
        0.1550000000         0.8409445823         3.1674646396         1.5496824576         2.1485326269         5.5324102489         7.0488815833
        0.1600000000         0.8015669849         3.1456819454         1.5420254771         2.1791551564         5.3329482762         6.7188146239
        0.1650000000         0.7583619153         3.1220122995         1.5496824576         2.1970182986         5.5324102489         6.3566654101
        0.1700000000         0.7115356772         3.0966228941         1.5445778039         2.2148814408         5.3994356004         5.9641631999
        0.1750000000         0.6613118653         3.0696870459         1.5445778039         2.2250889506         5.3994356004         5.5431821863
        0.1800000000         0.6079302977         3.0413821630         1.5267115159         2.2480558478         4.9340243309         5.0957325483
        0.1850000000         0.5516458706         3.0118878852         1.5420254771         2.2735746224         5.3329482762         4.6239508522
        0.1900000000         0.4927273415         2.9813844176         1.5343684965         2.2914377646         5.1334863035         4.1300898496
        0.1950000000         0.4314560457         2.9500510662         1.5369208233         2.3118527843         5.1999736278         3.6165077205
        0.2000000000         0.3681245527         2.9180649764         1.5292638428         2.3322678039         5.0005116551         3.0856568131
        0.2050000000         0.3030352696         2.8856000658         1.5267115159         2.3526828236         4.9340243309         2.5400719336
        0.2100000000         0.2364989970         2.8528261387         1.5292638428         2.3705459658         5.0005116551         1.9823582430
        0.2150000000         0.1688334447         2.8199081673         1.5216068622         2.3884091080         4.8010496824         1.4151788169
        0.2200000000         0.1003617149         2.7870057202         1.4960835936         2.4011684953         4.1361764401         0.8412419301
        0.2250000000         0.0314107591         2.5000000000         1.5369208233         2.4215835150         5.1999736278         0.2632881237
        0.2300000000        -0.0376901827         2.5000000000         1.5113975548         2.4496541670         4.5351003855        -0.3159228802
        0.2350000000        -0.1066111543         2.1896524536         1.4782173056         2.4573097994         3.6707651706        -0.8936253563
        0.2400000000        -0.1750230590         2.1553471046         1.4756649788         2.4649654318         3.6042778463        -1.4670607826
        0.2450000000        -0.2425992308         2.1210490586         1.4348277491         2.4904842064         2.5404806587        -2.0334910125
        0.2500000000        -0.3090169944         2.0869253944         1.3914381925         2.4879323289         1.4101961468        -2.5902113486
        0.2550000000        -0.3739592057         2.0531486038         1.3608102703         2.4904842064         0.6123482561        -3.1345634584
        0.2600000000        -0.4371157667         2.0198959631         1.3225253674         2.4879323289        -0.3849616073        -3.6639480676
        0.2650000000        -0.4981851053         1.9873487510         1.3378393285         2.5006917162         0.0139623381        -4.1758373715
        0.2700000000        -0.5568756165         1.9556912957         1.3506009628         2.5006917162         0.3463989592        -4.6677871050
        0.2750000000        -0.6129070537         1.9251098363         1.3301823480         2.4904842064        -0.1854996346        -5.1374482144
        0.2800000000        -0.6660118674         1.8957911870         1.3352870017         2.4904842064        -0.0525249861        -5.5825780740
        0.2850000000        -0.7159364830         1.8679211979         1.1923566977         2.4828285740        -3.7758151428        -6.0010511943
        0.2900000000        -0.7624425110         1.8416830163         1.2612695229         2.4726210642        -1.9806573887        -6.3908693715
        0.2950000000        -0.8053078857         1.8172551568         1.2536125423         2.4675173092        -2.1801193614        -6.7501712288
        0.3000000000        -0.8443279255         1.7948094066         1.1872520440         2.4522060445        -3.9087897913        -7.0772411044
        0.3050000000        -0.8793163102         1.7745085994         1.2025660052         2.4343429023        -3.5098658459        -7.3705172436
        0.3100000000        -0.9101059707         1.7565043079         1.2051183320         2.4266872699        -3.4433785217        -7.6285992569
        0.3150000000        -0.9365498867         1.7409345176         1.1770427366         2.4190316375        -4.1747390882        -7.8502548057
        0.3200000000        -0.9585217890         1.7279213533         1.1795950634         2.3986166179        -4.1082517640        -8.0344254877
        0.3250000000        -0.9759167619         1.7175689412         1.1693857560         2.3833053531        -4.3742010609        -8.1802318902
        0.3300000000        -0.9886517447         1.7099614893         1.1795950634         2.3782015982        -4.1082517640        -8.2869777896
        0.3350000000        -0.9966659280         1.7051616695         1.1846997172         2.3628903334        -3.9752771155        -8.3541534754
        0.3400000000        -0.9999210442         1.7032093741         1.1489671412         2.3450271912        -4.9060996547        -8.3814381846
        0.3450000000        -0.9984015501         1.7041209077         1.1744904097         2.3271640490        -4.2412264124        -8.3687016332
        0.3500000000        -0.9921147013         1.7078886519         1.1413101606         2.3067490293        -5.1055616274        -8.3160046379
        0.3550000000        -0.9810905174         1.7144812225         1.1464148143         2.2786783773        -4.9725869789        -8.2235988263
        0.3600000000        -0.9653816388         1.7238441090         1.1413101606         2.2557114802        -5.1055616274        -8.0919254349
        0.3650000000        -0.9450630752         1.7359007657         1.1336531800         2.2455039703        -5.3050236000        -7.9216132025
        0.3700000000        -0.9202318474         1.7505541016         1.1489671412         2.2352964605        -4.9060996547        -7.7134753678
        0.3750000000        -0.8910065242         1.7676882989         1.1362055069         2.1995701761        -5.2385362758        -7.4685057864
        0.3800000000        -0.8575266562         1.7871708822         1.1081299115         2.1791551564        -5.9698968423        -7.1878741849
        0.3850000000        -0.8199521093         1.8088549513         1.1413101606         2.1612920142        -5.1055616274        -6.8729205756
        0.3900000000        -0.7784623016         1.8325814980         1.1208915457         2.1434288720        -5.6374602212        -6.5251488580
        0.3950000000        -0.7332553462         1.8581817281         1.1387578337         2.1281176072        -5.1720489516        -6.1462196376
        0.4000000000        -0.6845471059         1.8854793228         1.1183392189         2.1025988326        -5.7039475454        -5.7379422966
        0.4050000000        -0.6325701619         1.9142925872         1.1413101606         2.0872875679        -5.1055616274        -5.3022663542
        0.4100000000        -0.5775727034         1.9444364423         1.1336531800         2.0694244256        -5.3050236000        -4.8412721574
        0.4150000000        -0.5198173426         1.9757242357         1.1770427366         2.0490094060        -4.1747390882        -4.3571609476
        0.4200000000        -0.4595798606         2.0079693541         1.1489671412         2.0362500187        -4.9060996547        -3.8522443497
        0.4250000000        -0.3971478906         2.0409866324         1.1591764486         2.0183868765        -4.6401503578        -3.3289333341
        0.4300000000        -0.3328195445         2.0745935633         1.1515194680         1.9954199793        -4.8396123305        -2.7897267041
        0.4350000000        -0.2669019893         2.1086113160         1.1464148143         1.9750049597        -4.9725869789        -2.2371991647
        0.4400000000        -0.1997099805         2.1428655785         1.1668334292         1.9545899400        -4.4406883851        -1.6739890277
        0.4450000000        -0.1315643591         2.1771872397         1.1617287755         1.9392786752        -4.5736630336        -1.1027856143
        0.4500000000        -0.0627905195         2.2114129306         1.1872520440         1.9290711654        -3.9087897913        -0.5263164137
        0.4550000000         0.0062831440         2.5000000000         1.1846997172         1.9086561457        -3.9752771155         0.0526659410
        0.4600000000         0.0753268055         2.7750752606         1.1898043709         1.8907930035        -3.8423024671         0.6313968166
        0.4650000000         0.1440107826         2.8079336307         1.2127753126         1.8805854937        -3.2439165490         1.2071127804
        0.4700000000         0.2120071099         2.8408641202         1.2561648691         1.8754817388        -2.1136320372         1.7770647961
        0.4750000000         0.2789911060         2.8737092414         1.2970020988         1.8627223515        -1.0498348495         2.3385313499
        0.4800000000         0.3446429232         2.9063059283         1.3378393285         1.8627223515         0.0139623381         2.8888314463
        0.4850000000         0.4086490747         2.9384860584         1.3403916554         1.8627223515         0.0804496623         3.4253374093
        0.4900000000         0.4707039322         2.9700771166         1.3301823480         1.8550667191        -0.1854996346         3.9454874298
        0.4950000000         0.5305111843         3.0009030178         1.3352870017         1.8652742289        -0.0525249861         4.4467977980
        0.5000000000         0.5877852523         3.0307851060         1.3429439823         1.8678261064         0.1469369865         4.9268747632
        0.5050000000         0.6422526532         3.0595433444         1.3327346748         1.8627223515        -0.1190123104         5.3834259642
        0.5100000000         0.6936533058         3.0869977055         1.3684672508         1.8678261064         0.8118102288         5.8142713747
        0.5150000000         0.7417417727         3.1129697642         1.4782173056         1.8805854937         3.6707651706         6.2173537133
        0.5200000000         0.7862884321         3.1372844894         1.4041998268         1.8831373711         1.7426327680         6.5907482670
        0.5250000000         0.8270805743         3.1597722168         1.4220661148         1.8831373711         2.2080440376         6.9326720816
        0.5300000000         0.8639234172         3.1802707757         1.4960835936         1.9035523908         4.1361764401         7.2414924753
        0.5350000000         0.8966410368         3.1986277261         1.4450370565         1.9137599006         2.8064299556         7.5157348344
        0.5400000000         0.9250772068         3.2147026532         1.4654556714         1.9214155330         3.3383285494         7.7540896554
        0.5450000000         0.9490961450         3.2283694477         1.5037405742         1.9443824302         4.3356384128         7.9554187969
        0.5500000000         0.9685831611         3.2395184981         1.4629033445         1.9418305527         3.2718412252         8.1187609149
        0.5550000000         0.9834452050         3.2480587063         1.4986359205         1.9699012047         4.2026637644         8.2433360528
        0.5600000000         0.9936113105         3.2539192452         1.5113975548         1.9852124695         4.5351003855         8.3285493659
        0.5650000000         0.9990329347         3.2570509763         1.4960835936         2.0005237343         4.1361764401         8.3739939618
        0.5700000000         0.9996841893         3.2574274603         1.5190545354         2.0234906314         4.7345623582         8.3794528430
        0.5750000000         0.9955619646         3.2550455104         1.5292638428         2.0490094060         5.0005116551         8.3448999435
        0.5800000000         0.9866859442         3.2499252589         1.5113975548         2.0541131609         4.5351003855         8.2705002529
        0.5850000000         0.9730985110         3.2421097353         1.5292638428         2.0719763031         5.0005116551         8.1566090289
        0.5900000000         0.9548645447         3.2316639763         1.5216068622         2.0949432002         4.8010496824         8.0037701005
        0.5950000000         0.9320711125         3.2186737128         1.5216068622         2.1128063424         4.8010496824         7.8127132717
        0.6000000000         0.9048270525         3.2032436979         1.5318161696         2.1255657297         5.0669989793         7.5843508365
        0.6050000000         0.8732624548         3.1854957529         1.5369208233         2.1510845043         5.1999736278         7.3197732225
        0.6100000000         0.8375280400         3.1655666151         1.5292638428         2.1689476465         5.0005116551         7.0202437844
        0.6150000000         0.7977944395         3.1436056732         1.5394731502         2.1842589113         5.2664609520         6.6871927717
        0.6200000000         0.7542513807         3.1197726695         1.5292638428         2.2072258084         5.0005116551         6.3222104985
        0.6250000000         0.7071067812         3.0942354410         1.5522347845         2.2404002154         5.5988975731         5.9270397506
        0.6300000000         0.6565857558         3.0671677578         1.5267115159         2.2480558478         4.9340243309         5.5035674633
        0.6350000000         0.6029295417         3.0387473051         1.5394731502         2.2710227449         5.2664609520         5.0538157114
        0.6400000000         0.5463943467         3.0091538399         1.5318161696         2.2914377646         5.0669989793         4.5799320538
        0.6450000000         0.4872501257         2.9785675430         1.5343684965         2.3118527843         5.1334863035         4.0841792788
        0.6500000000         0.4257792916         2.9471675731         1.5241591891         2.3271640490         4.8675370066         3.5689245998
        0.6550000000         0.3622753667         2.9151308235         1.5267115159         2.3475790687         4.9340243309         3.0366283513
        0.6600000000         0.2970415816         2.8826308716         1.5190545354         2.3628903334         4.7345623582         2.4898322409
        0.6650000000         0.2303894267         2.8498371101         1.5292638428         2.3935128629         5.0005116551         1.9311472133
