% f=1.70Hz  n_cycles=5  N_total=588  dt=0.005000
% Amp=1.0000V  K_lin=7.165500
Time[s]              Vcmd[V]              Vc[V]                Vg[V]                Pot[V]               Omega[rad/s]         Omega_target[rad/s] 
        0.0000000000         0.0000000000         2.5000000000         1.3378393285         2.3654422109         0.0056514226         0.0000000000
        0.0050000000         0.0533816898         2.7577362794         1.3276300211         2.3603384560        -0.2602978743         0.3825064980
        0.0100000000         0.1066111543         2.7787423388         1.3327346748         2.3628903334        -0.1273232259         0.7639222260
        0.0150000000         0.1595366024         2.7997786201         1.3352870017         2.3679940883        -0.0608359017         1.1431595245
        0.0200000000         0.2120071099         2.8207851403         1.3378393285         2.3654422109         0.0056514226         1.5191369461
        0.0250000000         0.2638730500         2.8417006870         1.3301823480         2.3603384560        -0.1938105501         1.8907823395
        0.0300000000         0.3149865197         2.8624629595         1.3378393285         2.3654422109         0.0056514226         2.2570359066
        0.0350000000         0.3652017619         2.8830087294         1.3327346748         2.3603384560        -0.1273232259         2.6168532248
        0.0400000000         0.4143755810         2.9032740195         1.3378393285         2.3628903334         0.0056514226         2.9692082256
        0.0450000000         0.4623677510         2.9231943037         1.3863335388         2.3654422109         1.2689105829         3.3130961201
        0.0500000000         0.5090414158         2.9427047272         1.4195137880         2.3807534756         2.1332457978         3.6475362646
        0.0550000000         0.5542634787         2.9617403491         1.3939905194         2.3833053531         1.4683725555         3.9715749569
        0.0600000000         0.5979049831         2.9802364052         1.4016475000         2.3833053531         1.6678345282         4.2842881561
        0.0650000000         0.6398414790         2.9981285930         1.4246184417         2.3935128629         2.2662204463         4.5847841174
        0.0700000000         0.6799533787         3.0153533767         1.4144091342         2.3986166179         2.0002711494         4.8722059352
        0.0750000000         0.7181262978         3.0318483108         1.4271707685         2.3986166179         2.3327077705         5.1457339866
        0.0800000000         0.7542513807         3.0475523816         1.4450370565         2.4190316375         2.7981190401         5.4045882687
        0.0850000000         0.7882256120         3.0624063623         1.4526940371         2.4292391474         2.9975810128         5.6480306227
        0.0900000000         0.8199521093         3.0763531803         1.4399324028         2.4394466572         2.6651443916         5.8753668394
        0.0950000000         0.8493404003         3.0893382911         1.4577986908         2.4496541670         3.1305556612         6.0859486381
        0.1000000000         0.8763066800         3.1013100559         1.4552463639         2.4649654318         3.0640683370         6.2791755159
        0.1050000000         0.9007740506         3.1122201163         1.4654556714         2.4777248191         3.3300176339         6.4544964596
        0.1100000000         0.9226727399         3.1220237624         1.4603510177         2.4828285740         3.1970429854         6.6114115175
        0.1150000000         0.9419403007         3.1306802866         1.4629033445         2.4904842064         3.2635303097         6.7494732247
        0.1200000000         0.9585217890         3.1381533178         1.4603510177         2.5032435937         3.1970429854         6.8682878792
        0.1250000000         0.9723699204         3.1444111304         1.4756649788         2.5160029810         3.5959669308         6.9675166646
        0.1300000000         0.9834452050         3.1494269215         1.4731126519         2.5364180006         3.5294796066         7.0468766164
        0.1350000000         0.9917160601         3.1531790501         1.4909789399         2.5517292654         3.9948908762         7.1061414287
        0.1400000000         0.9971589003         3.1556512350         1.5062929011         2.5746961625         4.3938148215         7.1451420998
        0.1450000000         0.9997582044         3.1568327050         1.4833219594         2.5772480400         3.7954289035         7.1637674139
        0.1500000000         0.9995065604         3.1567183006         1.4960835936         2.5951111822         4.1278655246         7.1619642583
        0.1550000000         0.9964046856         3.1553085215         1.5062929011         2.6155262019         4.3938148215         7.1397377750
        0.1600000000         0.9904614257         3.1526095230         1.5037405742         2.6282855892         4.3273274973         7.0971513458
        0.1650000000         0.9816937285         3.1486330571         1.5088452279         2.6512524863         4.4603021457         7.0343264119
        0.1700000000         0.9701265965         3.1433963633         1.5088452279         2.6614599961         4.4603021457         6.9514421271
        0.1750000000         0.9557930148         3.1369220091         1.5165022085         2.6793231383         4.6597641184         6.8487348475
        0.1800000000         0.9387338577         3.1292376847         1.5165022085         2.6971862806         4.6597641184         6.7264974570
        0.1850000000         0.9189977716         3.1203759566         1.5547871113         2.7380163199         5.6570739818         6.5850785324
        0.1900000000         0.8966410368         3.1103739844         1.5241591891         2.7507757072         4.8592260911         6.4248813491
        0.1950000000         0.8717274065         3.0992732069         1.5420254771         2.7609832170         5.3246373607         6.2463627316
        0.2000000000         0.8443279255         3.0871190042         1.5318161696         2.7813982367         5.0586880638         6.0500317502
        0.2050000000         0.8145207271         3.0739603403         1.5394731502         2.8018132564         5.2581500365         5.8364482698
        0.2100000000         0.7823908106         3.0598493944         1.5241591891         2.8196763986         4.8592260911         5.6062213532
        0.2150000000         0.7480297989         3.0448411844         1.5369208233         2.8451951732         5.1916627122         5.3600075240
        0.2200000000         0.7115356772         3.0289931902         1.5471301308         2.8656101929         5.4576120091         5.0985088950
        0.2250000000         0.6730125135         3.0123649802         1.5394731502         2.8860252125         5.2581500365         4.8224711656
        0.2300000000         0.6325701619         2.9950178464         1.5394731502         2.9013364773         5.2581500365         4.5326814952
        0.2350000000         0.5903239494         2.9770144508         1.5292638428         2.9140958646         4.9922007396         4.2299662591
        0.2400000000         0.5463943467         2.9584184877         1.5318161696         2.9370627617         5.0586880638         3.9151886915
        0.2450000000         0.5009066254         2.9392943626         1.5190545354         2.9523740265         4.7262514427         3.5892464240
        0.2500000000         0.4539904997         2.9197068910         1.5343684965         2.9753409236         5.1251753880         3.2530689259
        0.2550000000         0.4057797577         2.8997210172         1.5292638428         2.9983078207         4.9922007396         2.9076148536
        0.2600000000         0.3564118787         2.8794015548         1.5190545354         3.0136190855         4.7262514427         2.5538693169
        0.2650000000         0.3060276422         2.8588129486         1.5113975548         3.0340341051         4.5267894700         2.1928410701
        0.2700000000         0.2547707257         2.8380190574         1.5216068622         3.0544491248         4.7927387669         1.8255596349
        0.2750000000         0.2027872954         2.8170829586         1.5088452279         3.0646566347         4.4603021457         1.4530723649
        0.2800000000         0.1502255891         2.7960667717         1.5139498816         3.0901754092         4.5932767942         1.0764414588
        0.2850000000         0.0972354939         2.7750315022         1.4935312668         3.1054866740         4.0613782004         0.6967409317
        0.2900000000         0.0439681183         2.7540369024         1.5139498816         3.1310054486         4.5932767942         0.3150535518
        0.2950000000        -0.0094246384         2.5000000000         1.4960835936         3.1386610810         4.1278655246        -0.0675322467
        0.3000000000        -0.0627905195         2.2340102208         1.5011882474         3.1616279781         4.2608401731        -0.4499254677
        0.3050000000        -0.1159773448         2.2118652538         1.4731126519         3.1743873654         3.5294796066        -0.8310356642
        0.3100000000        -0.1688334447         2.1897141349         1.4271707685         3.1871467527         2.3327077705        -1.2097760481
        0.3150000000        -0.2212080928         2.1676205343         1.3888858657         3.1948023851         1.3353979071        -1.5850665889
        0.3200000000        -0.2729519355         2.1456492234         1.3659149240         3.1896986301         0.7370119891        -1.9558370939
        0.3250000000        -0.3239174182         2.1238659114         1.3352870017         3.1896986301        -0.0608359017        -2.3210302601
        0.3300000000        -0.3739592057         2.1023370636         1.3301823480         3.1896986301        -0.1938105501        -2.6796046887
        0.3350000000        -0.4229345971         2.0811297019         1.3403916554         3.1896986301         0.0721387468        -3.0305378554
        0.3400000000        -0.4707039322         2.0603111852         1.3327346748         3.1845948752        -0.1273232259        -3.3728290259
        0.3450000000        -0.5171309901         2.0399489719         1.3429439823         3.1948023851         0.1386260710        -3.7055021098
        0.3500000000        -0.5620833779         2.0201103618         1.3352870017         3.1896986301        -0.0608359017        -4.0276084440
        0.3550000000        -0.6054329074         2.0008622194         1.2510602154         3.1845948752        -2.2549176011        -4.3382294978
        0.3600000000        -0.6470559616         1.9822706794         1.2357462543         3.1692836105        -2.6538415465        -4.6364794926
        0.3650000000        -0.6868338465         1.9644008347         1.2663741766         3.1616279781        -1.8559936558        -4.9215079274
        0.3700000000        -0.7246531302         1.9473164092         1.2612695229         3.1590761006        -1.9889683042        -5.1925020044
        0.3750000000        -0.7604059656         1.9310794173         1.2178799663         3.1437648359        -3.1192528161        -5.4486889465
        0.3800000000        -0.7939903986         1.9157498133         1.2280892737         3.1412129584        -2.8533035192        -5.6893382015
        0.3850000000        -0.8253106587         1.9013851338         1.2229846200         3.1284535711        -2.9862781676        -5.9137635249
        0.3900000000        -0.8542774317         1.8880401358         1.2102229857         3.1182460613        -3.3187147888        -6.1213249368
        0.3950000000        -0.8808081149         1.8757664368         1.2306416006         3.0978310416        -2.7868161950        -6.3114305475
        0.4000000000        -0.9048270525         1.8646121598         1.1974613514         3.0927272867        -3.6511514099        -6.4835382444
        0.4050000000        -0.9262657510         1.8546215893         1.2025660052         3.0774160220        -3.5181767615        -6.6371572389
        0.4100000000        -0.9450630752         1.8458348429         1.2000136783         3.0646566347        -3.5846640857        -6.7718494652
        0.4150000000        -0.9611654218         1.8382875637         1.2000136783         3.0570010023        -3.5846640857        -6.8872308298
        0.4200000000        -0.9745268728         1.8320106398         1.1846997172         3.0416897375        -3.9835880310        -6.9829723070
        0.4250000000        -0.9851093262         1.8270299544         1.1898043709         3.0238265953        -3.8506133826        -7.0588008766
        0.4300000000        -0.9928826046         1.8233661728         1.1693857560         3.0034115756        -4.3825119764        -7.1145003030
        0.4350000000        -0.9978245415         1.8210345682         1.1923566977         2.9932040658        -3.7841260584        -7.1499117518
        0.4400000000        -0.9999210442         1.8200448927         1.1617287755         2.9676852912        -4.5819739491        -7.1649342422
        0.4450000000        -0.9991661343         1.8204012931         1.1617287755         2.9498221490        -4.5819739491        -7.1595249356
        0.4500000000        -0.9955619646         1.8221022756         1.1566241217         2.9345108842        -4.7149485975        -7.1336992574
        0.4550000000        -0.9891188128         1.8251407183         1.1617287755         2.9217514970        -4.5819739491        -7.0875308529
        0.4600000000        -0.9798550524         1.8295039328         1.1464148143         2.8987845998        -4.9808978944        -7.0211513779
        0.4650000000        -0.9677971003         1.8351737722         1.1515194680         2.8885770900        -4.8479232460        -6.9347501224
        0.4700000000        -0.9529793415         1.8421267846         1.1515194680         2.8630583154        -4.8479232460        -6.8285734716
        0.4750000000        -0.9354440308         1.8503344082         1.1719380829         2.8579545605        -4.3160246522        -6.7029242029
        0.4800000000        -0.9152411726         1.8597632042         1.1489671412         2.8375395408        -4.9144105702        -6.5581606224
        0.4850000000        -0.8924283781         1.8703751240         1.1642811023         2.8196763986        -4.5154866249        -6.3946955434
        0.4900000000        -0.8670707012         1.8821278043         1.1464148143         2.7992613789        -4.9808978944        -6.2129951092
        0.4950000000        -0.8392404527         1.8949748863         1.1591764486         2.7762944818        -4.6484612733        -6.0135774635
        0.5000000000        -0.8090169944         1.9088663533         1.1311008532         2.7584313396        -5.3798218398        -5.7970112732
        0.5050000000        -0.7764865127         1.9237488810         1.1387578337         2.7329125650        -5.1803598671        -5.5639141067
        0.5100000000        -0.7417417727         1.9395661960         1.1489671412         2.7252569326        -4.9144105702        -5.3149506726
        0.5150000000        -0.7048818539         1.9562594367         1.1693857560         2.7099456679        -4.3825119764        -5.0508309244
        0.5200000000        -0.6660118674         1.9737675140         1.1336531800         2.6895306482        -5.3133345156        -4.7723080361
        0.5250000000        -0.6252426563         1.9920274653         1.1617287755         2.6665637511        -4.5819739491        -4.4801762540
        0.5300000000        -0.5826904797         2.0109748004         1.1464148143         2.6487006088        -4.9808978944        -4.1752686321
        0.5350000000        -0.5384766808         2.0305438351         1.1566241217         2.6282855892        -4.7149485975        -3.8584546565
        0.5400000000        -0.4927273415         2.0506680103         1.1413101606         2.6053186920        -5.1138725429        -3.5306377659
        0.5450000000        -0.4455729224         2.0712801956         1.1642811023         2.5900074273        -4.5154866249        -3.1927527753
        0.5500000000        -0.3971478906         2.0923129741         1.1617287755         2.5823517949        -4.5819739491        -2.8457632103
        0.5550000000        -0.3475903370         2.1136989090         1.1668334292         2.5517292654        -4.4489993006        -2.4906585596
        0.5600000000        -0.2970415816         2.1353707914         1.1515194680         2.5338661232        -4.8479232460        -2.1284514528
        0.5650000000        -0.2456457712         2.1572618681         1.1719380829         2.5236586133        -4.3160246522        -1.7601747735
        0.5700000000        -0.1935494681         2.1793060503         1.1719380829         2.5057954711        -4.3160246522        -1.3868787133
        0.5750000000        -0.1409012319         2.2014381038         1.1923566977         2.4853804515        -3.7841260584        -1.0096277774
        0.5800000000        -0.0878511966         2.2235938211         1.1795950634         2.4700691867        -4.1165626795        -0.6294977489
        0.5850000000        -0.0345506414         2.2457101752         1.1974613514         2.4649654318        -3.6511514099        -0.2475726208
        0.5900000000         0.0188484397         2.7441878534         1.2025660052         2.4573097994        -3.5181767615         0.1350584948
        0.5950000000         0.0721937719         2.7651430263         1.2357462543         2.4419985347        -2.6538415465         0.5173044724
        0.6000000000         0.1253332336         2.7861665191         1.2612695229         2.4317910248        -1.9889683042         0.8980752851
        0.6050000000         0.1781152903         2.8071992118         1.2944497720         2.4241353924        -1.1246330893         1.2762851124
        0.6100000000         0.2303894267         2.8281806726         1.3403916554         2.4215835150         0.0721387468         1.6508554369
        0.6150000000         0.2820065759         2.8490492878         1.3276300211         2.4190316375        -0.2602978743         2.0207181196
        0.6200000000         0.3328195445         2.8697424101         1.3429439823         2.4139278826         0.1386260710         2.3848184463
        0.6250000000         0.3826834324         2.8901965252         1.3250776943         2.4190316375        -0.3267851986         2.7421181346
        0.6300000000         0.4314560457         2.9103474383         1.3301823480         2.4139278826        -0.1938105501         3.0915982953
        0.6350000000         0.4789983026         2.9301304811         1.3327346748         2.4139278826        -0.1273232259         3.4322623376
        0.6400000000         0.5251746300         2.9494807397         1.3327346748         2.4215835150        -0.1273232259         3.7631388110
        0.6450000000         0.5698533495         2.9683333043         1.3863335388         2.4241353924         1.2689105829         4.0832841756
        0.6500000000         0.6129070537         2.9866235401         1.4424847297         2.4215835150         2.7316317159         4.3917854930
        0.6550000000         0.6542129689         3.0042873793         1.3863335388         2.4292391474         1.2689105829         4.6877630289
        0.6600000000         0.6936533058         3.0212616332         1.4041998268         2.4471022896         1.7343218525         4.9703727628
        0.6650000000         0.7311155947         3.0374843217         1.4271707685         2.4471022896         2.3327077705         5.2388087940
