% f=2.20Hz  n_cycles=5  N_total=454  dt=0.005000
% Amp=400.00deg/s
Time[s]              OmegaCmd[deg/s]      Vc[V]                Vg[V]                Pot[V]               Omega[rad/s]         Omega_target[rad/s] 
        0.0000000000         0.0000000000         2.4974092728         1.3454963091         1.7963735375         0.1968024797         0.0000000000
        0.0050000000        27.6240102858         2.7275270088         1.3301823480         1.7887179052        -0.2021214656         0.4821299321
        0.0100000000        55.1161162739         2.7611661153         1.3403916554         1.7989254150         0.0638278313         0.9619576999
        0.0150000000        82.3450435080         2.7938158606         1.3378393285         1.7912697826        -0.0026594930         1.4371921319
        0.0200000000       109.1807742069         2.8253660807         1.3582579434         1.7912697826         0.5292391008         1.9055639898
        0.0250000000       135.4951680981         2.8557234583         1.3378393285         1.7912697826        -0.0026594930         2.3648368039
        0.0300000000       161.1625742855         2.8848095351         1.3327346748         1.7810622728        -0.1356341414         2.8128175523
        0.0350000000       186.0604312310         2.9125583365         1.3352870017         1.7912697826        -0.0691468172         3.2473671327
        0.0400000000       210.0698519845         2.9389137798         1.3454963091         1.7989254150         0.1968024797         3.6664105763
        0.0450000000       233.0761918674         2.9638270481         1.3429439823         1.7989254150         0.1303151555         4.0679469561
        0.0500000000       254.9695958995         2.9872541016         1.3480486360         1.7912697826         0.2632898039         4.4500589409
        0.0550000000       275.6455233549         3.0091534885         1.3454963091         1.7989254150         0.1968024797         4.8109219509
        0.0600000000       295.0052469433         3.0294845842         1.3352870017         1.7912697826        -0.0691468172         5.1488128698
        0.0650000000       312.9563242306         3.0482063563         1.3454963091         1.7989254150         0.1968024797         5.4621182728
        0.0700000000       329.4130390514         3.0652767068         1.3301823480         1.7861660277        -0.2021214656         5.7493421304
        0.0750000000       344.2968108016         3.0806524010         1.3429439823         1.8014772924         0.1303151555         6.0091129526
        0.0800000000       357.5365696605         3.0942895470         1.3531532897         1.7912697826         0.3962644524         6.2401903369
        0.0850000000       369.0690959480         3.1061445488         1.3403916554         1.7912697826         0.0638278313         6.4414708917
        0.0900000000       378.8393219979         3.1161754225         1.3301823480         1.7887179052        -0.2021214656         6.6119935049
        0.0950000000       386.8005951050         3.1243433396         1.3378393285         1.7938216601        -0.0026594930         6.7509439333
        0.1000000000       392.9149002915         3.1306142499         1.3301823480         1.7887179052        -0.2021214656         6.8576586902
        0.1050000000       397.1530418279         3.1349604313         1.3429439823         1.7938216601         0.1303151555         6.9316282142
        0.1100000000       399.4947826424         3.1373618264         1.3684672508         1.7938216601         0.7951883978         6.9724993016
        0.1150000000       399.9289409523         3.1378070473         1.4016475000         1.8040291699         1.6595236127         6.9800767936
        0.1200000000       398.4534436573         3.1362939584         1.4782173056         1.8116848023         3.6541433395         6.9543245077
        0.1250000000       395.0753362381         3.1328297865         1.5675487456         1.8295479445         5.9811996874         6.8953654108
        0.1300000000       389.8107491146         3.1274307493         1.5241591891         1.8448592093         4.8509151756         6.8034810317
        0.1350000000       382.6848206235         3.1201212330         1.5267115159         1.8601704740         4.9174024998         6.6791101173
        0.1400000000       373.7315769826         3.1109325940         1.5062929011         1.8780336162         4.3855039060         6.5228465370
        0.1450000000       362.9937698164         3.0999016889         1.4960835936         1.8933448810         4.1195546091         6.3354364475
        0.1500000000       350.5226720175         3.0870692670         1.5113975548         1.9112080232         4.5184785544         6.1177747296
        0.1550000000       336.3778329193         3.0724783717         1.5190545354         1.9214155330         4.7179405271         5.8709007152
        0.1600000000       320.6267939484         3.0561729034         1.5267115159         1.9545899400         4.9174024998         5.5959932245
        0.1650000000       303.3447661155         3.0381964855         1.5062929011         1.9647974498         4.3855039060         5.2943649374
        0.1700000000       284.6142708837         3.0185917583         1.5088452279         1.9775568371         4.4519912302         4.9674561251
        0.1750000000       264.5247461295         2.9974001927         1.5165022085         1.9903162244         4.6514532029         4.6168277730
        0.1800000000       243.1721190778         2.9746624795         1.5139498816         2.0132831215         4.5849658787         4.2441541270
        0.1850000000       220.6583482514         2.9504195059         1.5088452279         2.0388018961         4.4519912302         3.8512146990
        0.1900000000       197.0909366193         2.9247138872         1.4986359205         2.0515612834         4.1860419333         3.4398857698
        0.1950000000       172.5824182724         2.8975919750         1.5190545354         2.0745281806         4.7179405271         3.0121314299
        0.2000000000       147.2498210739         2.8691062280         1.5088452279         2.0847356904         4.4519912302         2.5699942007
        0.2050000000       121.2141078531         2.8393177969         1.5037405742         2.1077025875         4.3190165818         2.1155852819
        0.2100000000        94.5995988095         2.8082991542         1.4909789399         2.1230138523         3.9865799606         1.6510744703
        0.2150000000        67.5333778851         2.7761365894         1.4935312668         2.1332213621         4.0530672849         1.1786797991
        0.2200000000        40.1446859405         2.7429323938         1.4909789399         2.1485326269         3.9865799606         0.7006569468
        0.2250000000        12.5643036313         2.6360354296         1.4884266131         2.1663957691         3.9200926364         0.2192884666
        0.2300000000       -15.0760730680         2.3310699252         1.4833219594         2.1893626662         3.7871179880        -0.2631271133
        0.2350000000       -42.6444617101         2.2441063894         1.4756649788         2.2046739310         3.5876560153        -0.7442862646
        0.2400000000       -70.0092235901         2.2061324472         1.4450370565         2.2046739310         2.7898081246        -1.2218914584
        0.2450000000       -97.0396923182         2.1700700701         1.4348277491         2.2199851957         2.5238588276        -1.6936621361
        0.2500000000      -123.6067977500         2.1358997622         1.4093044805         2.2250889506         1.8589855854        -2.1573455986
        0.2550000000      -149.5836822951         2.1035898548         1.3914381925         2.2276408281         1.3935743158        -2.6107277633
        0.2600000000      -174.8463066604         2.0731024094         1.3786765582         2.2480558478         1.0611376947        -3.0516437362
        0.2650000000      -199.2740421358         2.0443985076         1.3454963091         2.2429520929         0.1968024797        -3.4779881490
        0.2700000000      -222.7502465953         2.0174427532         1.3199730405         2.2378483379        -0.4680707626        -3.8877252127
        0.2750000000      -245.1628214612         1.9922068573         1.3378393285         2.2506077252        -0.0026594930        -4.2788984380
        0.2800000000      -266.4047469737         1.9686722251         1.3378393285         2.2404002154        -0.0026594930        -4.6496399776
        0.2850000000      -286.3745932087         1.9468315191         1.3352870017         2.2404002154        -0.0691468172        -4.9981795456
        0.2900000000      -304.9770044046         1.9266892148         1.3276300211         2.2352964605        -0.2686087899        -5.3228528697
        0.2950000000      -322.1231542844         1.9082612182         1.3429439823         2.2480558478         0.1303151555        -5.6221096392
        0.3000000000      -337.7311702008         1.8915736502         1.3327346748         2.2404002154        -0.1356341414        -5.8945209066
        0.3050000000      -351.7265240762         1.8766609376         1.3378393285         2.2455039703        -0.0026594930        -6.1387859117
        0.3100000000      -364.0423882740         1.8635633793         1.3352870017         2.2404002154        -0.0691468172        -6.3537382922
        0.3150000000      -374.6199546993         1.8523243677         1.3327346748         2.2327445830        -0.1356341414        -6.5383516532
        0.3200000000      -383.4087156069         1.8429874588         1.3378393285         2.2404002154        -0.0026594930        -6.6917444682
        0.3250000000      -390.3667047755         1.8355934801         1.3327346748         2.2352964605        -0.1356341414        -6.8131842885
        0.3300000000      -395.4606978952         1.8301778549         1.3506009628         2.2506077252         0.3297771282        -6.9020912405
        0.3350000000      -398.6663712136         1.8267683054         1.3276300211         2.2301927056        -0.2686087899        -6.9580407947
        0.3400000000      -399.9684176815         1.8253830687         1.3276300211         2.2327445830        -0.2686087899        -6.9807657925
        0.3450000000      -399.3606200436         1.8260297288         1.2791358108         2.2352964605        -1.5318679502        -6.9701577226
        0.3500000000      -396.8458805258         1.8287047327         1.1464148143         2.2199851957        -4.9892088100        -6.9262672382
        0.3550000000      -392.4362069773         1.8333936171         1.1362055069         2.1995701761        -5.2551581069        -6.8493039158
        0.3600000000      -386.1526555333         1.8400719328         1.1413101606         2.1791551564        -5.1221834584        -6.7396352544
        0.3650000000      -378.0252300719         1.8487068157         1.1489671412         2.1663957691        -4.9227214857        -6.5977849204
        0.3700000000      -368.0927389463         1.8592591104         1.1591764486         2.1383251170        -4.6567721888        -6.4244302473
        0.3750000000      -356.4026096753         1.8716859262         1.1821473903         2.1281176072        -4.0583862708        -6.2203990015
        0.3800000000      -343.0106624775         1.8859434702         1.1617287755         2.1025988326        -4.5902848646        -5.9866654297
        0.3850000000      -327.9808437302         1.9019899851         1.1566241217         2.0923913228        -4.7232595131        -5.7243456066
        0.3900000000      -311.3849206268         1.9197886049         1.1795950634         2.0821838129        -4.1248735950        -5.4346921060
        0.3950000000      -293.3021384890         1.9393099360         1.1821473903         2.0643206707        -4.0583862708        -5.1190880198
        0.4000000000      -273.8188423715         1.9605341777         1.1566241217         2.0336981412        -4.7232595131        -4.7790403534
        0.4050000000      -253.0280647653         1.9834526069         1.1566241217         2.0158349990        -4.7232595131        -4.4161728301
        0.4100000000      -231.0290813689         2.0080682789         1.1744904097         2.0132831215        -4.2578482435        -4.0322181377
        0.4150000000      -207.9269370483         2.0343958217         1.1693857560         1.9903162244        -4.3908228919        -3.6290096551
        0.4200000000      -183.8319442486         2.0624602446         1.1693857560         1.9750049597        -4.3908228919        -3.2084726975
        0.4250000000      -158.8591562539         2.0922947230         1.1744904097         1.9571418174        -4.2578482435        -2.7726153236
        0.4300000000      -133.1278178092         2.1239373694         1.1795950634         1.9418305527        -4.1248735950        -2.3235187468
        0.4350000000      -106.7607957282         2.1574270525         1.1872520440         1.9341749203        -3.9254116223        -1.8633273975
        0.4400000000       -79.8839922058         2.1927983759         1.1923566977         1.9112080232        -3.7924369739        -1.3942386836
        0.4450000000       -52.6257436369         2.2300759751         1.1923566977         1.8882411261        -3.7924369739        -0.9184924978
        0.4500000000       -25.1162078117         2.2692683357         1.1949090246         1.8805854937        -3.7259496497        -0.4383605219
        0.4550000000         2.5132575862         2.5251388828         1.2000136783         1.8678261064        -3.5929750012         0.0438646198
        0.4600000000        30.1307222112         2.7306227497         1.2127753126         1.8601704740        -3.2605383801         0.5258803086
        0.4650000000        57.6043130209         2.7641769397         1.2331939274         1.8474110867        -2.7286397863         1.0053849256
        0.4700000000        84.8028439688         2.7967310151         1.2510602154         1.8372035769        -2.2632285167         1.4800888423
        0.4750000000       111.5964424157         2.8281764121         1.2638218497         1.8269960670        -1.9307918955         1.9477253537
        0.4800000000       137.8571692698         2.8584212535         1.2842404646         1.8193404347        -1.3988933017         2.4060615012
        0.4850000000       163.4596298945         2.8873883185         1.2995544257         1.8269960670        -0.9999693564         2.8529087358
        0.4900000000       188.2815728661         2.9150126405         1.3301823480         1.8193404347        -0.2021214656         3.2861333673
        0.4950000000       212.2044737227         2.9412389054         1.3429439823         1.8193404347         0.1303151555         3.7036667539
        0.5000000000       235.1141009170         2.9660188295         1.3352870017         1.8193404347        -0.0691468172         4.1035151789
        0.5050000000       256.9010612706         2.9893086936         1.3352870017         1.8218923121        -0.0691468172         4.4837693710
        0.5100000000       277.4613223251         3.0110671861         1.3378393285         1.8193404347        -0.0026594930         4.8426136215
        0.5150000000       296.6967090955         3.0312536883         1.3378393285         1.8218923121        -0.0026594930         5.1783344535
        0.5200000000       314.5153728546         3.0498270891         1.3352870017         1.8218923121        -0.0691468172         5.4893288045
        0.5250000000       330.8322297098         3.0667451813         1.3378393285         1.8218923121        -0.0026594930         5.7741116802
        0.5300000000       345.5693668771         3.0819646431         1.3352870017         1.8167885572        -0.0691468172         6.0313232460
        0.5350000000       358.6564147141         3.0954415636         1.3352870017         1.8193404347        -0.0691468172         6.2597353202
        0.5400000000       370.0308827338         3.1071324346         1.3429439823         1.8269960670         0.1303151555         6.4582572378
        0.5450000000       379.6384579961         3.1169954928         1.3352870017         1.8218923121        -0.0691468172         6.6259410592
        0.5500000000       387.4332644515         3.1249922774         1.3378393285         1.8218923121        -0.0026594930         6.7619860964
        0.5550000000       393.3780819981         3.1310892515         1.3301823480         1.8167885572        -0.2021214656         6.8657427360
        0.5600000000       397.4445242080         3.1352593387         1.3378393285         1.8193404347        -0.0026594930         6.9367155415
        0.5650000000       399.6131738712         3.1374832341         1.3429439823         1.8193404347         0.1303151555         6.9745656184
        0.5700000000       399.8736757133         3.1377503738         1.3659149240         1.8295479445         0.7287010735         6.9791122332
        0.5750000000       398.2247858412         3.1360594759         1.4016475000         1.8218923121         1.6595236127         6.9503336760
        0.5800000000       394.6743776831         3.1324186071         1.5062929011         1.8423073318         4.3855039060         6.8883673638
        0.5850000000       389.2394043929         3.1268447679         1.5394731502         1.8525148416         5.2498391209         6.7935091852
        0.5900000000       381.9458178987         3.1193630328         1.5318161696         1.8805854937         5.0503771483         6.6662120866
        0.5950000000       372.8284449833         3.1100053218         1.5165022085         1.9010005134         4.6514532029         6.5070839100
        0.6000000000       361.9308209864         3.0988089129         1.4909789399         1.9061042683         3.9865799606         6.3168844907
        0.6050000000       349.3049819240         3.0858148287         1.4986359205         1.9290711654         4.1860419333         6.0965220282
        0.6100000000       335.0112160169         3.0710662463         1.5241591891         1.9520380625         4.8509151756         5.8470487506
        0.6150000000       319.1177758154         3.0546070820         1.5139498816         1.9622455724         4.5849658787         5.5696558896
        0.6200000000       301.7005522944         3.0364808919         1.5165022085         1.9877643470         4.6514532029         5.2656679926
        0.6250000000       282.8427124746         3.0167302092         1.5190545354         2.0005237343         4.7179405271         4.9365365980
        0.6300000000       262.6343023012         2.9953964091         1.5113975548         2.0107312441         4.5184785544         4.5838333038
        0.6350000000       241.1718166756         2.9725201511         1.5088452279         2.0362500187         4.4519912302         4.2092422640
        0.6400000000       218.5577386937         2.9481424084         1.5062929011         2.0515612834         4.3855039060         3.8145521459
        0.6450000000       194.9000502901         2.9223060464         1.5165022085         2.0694244256         4.6514532029         3.4016475899
        0.6500000000       170.3117166260         2.8950578698         1.5037405742         2.0821838129         4.3190165818         2.9725002098
        0.6550000000       144.9101466818         2.8664510187         1.5088452279         2.1051507101         4.4519912302         2.5291591791
        0.6600000000       118.8166326308         2.8365475651         1.4935312668         2.1230138523         4.0530672849         2.0737414455
        0.6650000000        92.1557706706         2.8054211378         1.5037405742         2.1434288720         4.3190165818         1.6084216229
