% f=2.85Hz  n_cycles=5  N_total=350  dt=0.005000
% Amp=2.0000V  K_lin=4.959600
Time[s]              Vcmd[V]              Vc[V]                Vg[V]                Pot[V]               Omega[rad/s]         Omega_target[rad/s] 
        0.0000000000         0.0000000000         2.5000000000         1.3352870017         0.9134239367        -0.0608359017         0.0000000000
        0.0050000000         0.1788316211         2.7705914320         1.3378393285         0.9134239367         0.0056514226         0.8869333079
        0.0100000000         0.3562305805         2.8261057451         1.3250776943         0.9083201818        -0.3267851986         1.7667611872
        0.0150000000         0.5307756941         2.8807646450         1.3429439823         0.9185276916         0.1386260710         2.6324351325
        0.0200000000         0.7010686404         2.9341280456         1.3352870017         0.9134239367        -0.0608359017         3.4770200288
        0.0250000000         0.8657451630         2.9857654197         1.3327346748         0.9057683043        -0.1273232259         4.2937497106
        0.0300000000         1.0234860002         3.0352593426         1.3352870017         0.9108720593        -0.0608359017         5.0760811667
        0.0350000000         1.1730274535         3.0822089550         1.3429439823         0.9185276916         0.1386260710         5.8177469583
        0.0400000000         1.3131715115         3.1262333128         1.3939905194         0.9159758142         1.4683725555         6.5128054285
        0.0450000000         1.4427954477         3.1669745938         1.4680079982         0.9338389564         3.3965049581         7.1556883025
        0.0500000000         1.5608608147         3.2041011299         1.4118568074         0.9389427113         1.9337838251         7.7412452965
        0.0550000000         1.6664217633         3.2373102347         1.4475893834         0.9414945888         2.8646063643         8.2647853774
        0.0600000000         1.7586326204         3.2663307998         1.4909789399         0.9593577310         3.9948908762         8.7221143440
        0.0650000000         1.8367546633         3.2909256312         1.4577986908         0.9644614859         3.1305556612         9.1095684280
        0.0700000000         1.9001620382         3.3108935037         1.5037405742         0.9721171183         4.3273274973         9.4240436447
        0.0750000000         1.9483467739         3.3260709099         1.4960835936         0.9950840154         4.1278655246         9.6630206600
        0.0800000000         1.9809228514         3.3363334864         1.5011882474         1.0129471576         4.2608401731         9.8245849738
        0.0850000000         1.9976292960         3.3415971013         1.5292638428         1.0257065449         4.9922007396         9.9074422567
        0.0900000000         1.9983322687         3.3418185909         1.5190545354         1.0588809519         4.7262514427         9.9109287198
        0.0950000000         1.9830261376         3.3369961390         1.5496824576         1.0716403392         5.5240993334         9.8350164322
        0.1000000000         1.9518335239         3.3271692918         1.5496824576         1.0971591138         5.5240993334         9.6803135450
        0.1050000000         1.9050043187         3.3124186121         1.5496824576         1.1175741334         5.5240993334         9.4480594189
        0.1100000000         1.8429136816         3.2928649726         1.5598917651         1.1328853982         5.7900486303         9.1401146955
        0.1150000000         1.7660590353         3.2686684992         1.5777580530         1.1558522953         6.2554598999         8.7589463915
        0.1200000000         1.6750560801         3.2400271741         1.5573394382         1.1762673150         5.7235613061         8.3076081348
        0.1250000000         1.5706338618         3.2071751140         1.5726533993         1.1992342121         6.1224852514         7.7897157008
        0.1300000000         1.4536289310         3.1703805419         1.5598917651         1.2145454769         5.7900486303         7.2094180461
        0.1350000000         1.3249786414         3.1299434744         1.5726533993         1.2502717613         6.1224852514         6.5713640698
        0.1400000000         1.1857136403         3.0861931474         1.5701010725         1.2604792711         6.0559979272         5.8806653705
        0.1450000000         1.0369496120         3.0394852076         1.5547871113         1.2859980457         5.6570739818         5.1428552959
        0.1500000000         0.8798783397         2.9901986965         1.5752057262         1.3191724527         6.1889725756         4.3638446136
        0.1550000000         0.7157581578         2.9387328589         1.5598917651         1.3370355949         5.7900486303         3.5498741592
        0.1600000000         0.5459038710         2.8855038035         1.5726533993         1.3625543695         6.1224852514         2.7074648388
        0.1650000000         0.3716762217         2.8309410489         1.5522347845         1.3753137568         5.5905866576         1.8433653891
        0.1700000000         0.1944709878         2.7754839859         1.5471301308         1.3957287765         5.4576120091         0.9644983113
        0.1750000000         0.0157078018         2.5000000000         1.5624440919         1.4289031834         5.8565359545         0.0779044137
        0.1800000000        -0.1631812231         2.2284784721         1.5701010725         1.4391106933         6.0559979272        -0.8093135943
        0.1850000000        -0.3407629654         2.1641114304         1.5318161696         1.4646294679         5.0586880638        -1.6900480032
        0.1900000000        -0.5156147764         2.1016452179         1.4960835936         1.4799407326         4.1278655246        -2.5572430452
        0.1950000000        -0.6863358778         2.0414909585         1.4756649788         1.4952519974         3.5959669308        -3.4039514195
        0.2000000000        -0.8515585831         1.9840297793         1.4552463639         1.5131151396         3.0640683370        -4.2233899489
        0.2050000000        -1.0099592550         1.9296130790         1.4041998268         1.5156670170         1.7343218525        -5.0089939210
        0.2100000000        -1.1602689088         1.8785629271         1.3454963091         1.5207707720         0.2051133952        -5.7544696800
        0.2150000000        -1.3012833790         1.8311725396         1.2587171960         1.5105632621        -2.0554556285        -6.4538450466
        0.2200000000        -1.4318729660         1.7877067880         1.3072114063         1.5131151396        -0.7921964682        -7.1015171624
        0.2250000000        -1.5509914863         1.7484027141         1.2510602154         1.5054595072        -2.2549176011        -7.6922973757
        0.2300000000        -1.6576846538         1.7134700249         1.2255369469         1.4927001199        -2.9197908434        -8.2214528090
        0.2350000000        -1.7510977247         1.6830915548         1.2536125423         1.4850444875        -2.1884302769        -8.6847442755
        0.2400000000        -1.8304823452         1.6574236835         1.1872520440         1.4722851002        -3.9171007068        -9.0784602395
        0.2450000000        -1.8952025468         1.6365967012         1.1898043709         1.4646294679        -3.8506133826        -9.3994465511
        0.2500000000        -1.9447398408         1.6207151194         1.1744904097         1.4442144482        -4.2495373279        -9.6451317144
        0.2550000000        -1.9786973725         1.6098579218         1.1668334292         1.4365588158        -4.4489993006        -9.8135474886
        0.2600000000        -1.9968031002         1.6040787562         1.1642811023         1.4237994285        -4.5154866249        -9.9033446558
        0.2650000000        -1.9989119748         1.6034060643         1.1362055069         1.3957287765        -5.2468471913        -9.9138038301
        0.2700000000        -1.9850071015         1.6078431517         1.1285485263         1.3778656343        -5.4463091640        -9.8448412206
        0.2750000000        -1.9551998755         1.6173681956         1.1413101606         1.3574506146        -5.1138725429        -9.6970093027
        0.2800000000        -1.9097290895         1.6319341916         1.1132345652         1.3344837175        -5.8452331094        -9.4714923923
        0.2850000000        -1.8489590204         1.6514688393         1.1157868920         1.3089649429        -5.7787457852        -9.1700971576
        0.2900000000        -1.7733765114         1.6758743671         1.1106822383         1.2987574330        -5.9117204336        -8.7952381459
        0.2950000000        -1.6835870715         1.7050272963         1.1030252578         1.2655830261        -6.1111824063        -8.3499184398
        0.3000000000        -1.5803100248         1.7387781462         1.1157868920         1.2426161289        -5.7787457852        -7.8377055988
        0.3050000000        -1.4643727475         1.7769510825         1.0800543160         1.2196492318        -6.7095683243        -7.2627030787
        0.3100000000        -1.3367040403         1.8193435132         1.1106822383         1.1966823347        -5.9117204336        -6.6295173584
        0.3150000000        -1.1983266868         1.8657256368         1.1030252578         1.1788191925        -6.1111824063        -5.9432210357
        0.3200000000        -1.0503492599         1.9158399547         1.1157868920         1.1635079277        -5.7787457852        -5.2093121895
        0.3250000000        -0.8939572413         1.9694007601         1.1030252578         1.1328853982        -6.1111824063        -4.4336703342
        0.3300000000        -0.7304035238         2.0260936246         1.1387578337         1.1124703785        -5.1803598671        -3.6225093166
        0.3350000000        -0.5609983740         2.0855749104         1.1183392189         1.0920553588        -5.7122584609        -2.7823275359
        0.3400000000        -0.3870989361         2.1474713463         1.1132345652         1.0639847068        -5.8452331094        -1.9198558835
        0.3450000000        -0.2100983587         2.2113797182         1.1157868920         1.0435696871        -5.7787457852        -1.0420038199
        0.3500000000        -0.0314146346         2.5000000000         1.1311008532         1.0231546675        -5.3798218398        -0.1558040219
        0.3550000000         0.1475207594         2.7607971725         1.1362055069         1.0078434027        -5.2468471913         0.7316439584
        0.3600000000         0.3252743304         2.8164156797         1.1617287755         0.9874283830        -4.5819739491         1.6132305690
        0.3650000000         0.5004220532         2.8712566993         1.2076706589         0.9746689957        -3.3852021130         2.4818932151
        0.3700000000         0.6715607788         2.9248788375         1.2561648691         0.9619096084        -2.1219429527         3.3306728385
        0.3750000000         0.8373194751         2.9768496322         1.3097637331         0.9644614859        -0.7257091439         4.1527696686
        0.3800000000         0.9963702107         3.0267491068         1.3403916554         0.9491502211         0.0721387468         4.9415976969
        0.3850000000         1.1474387932         3.0741732498         1.3378393285         0.9517020986         0.0056514226         5.6908374389
        0.3900000000         1.2893149773         3.1187373870         1.3276300211         0.9542539761        -0.2602978743         6.3944865612
        0.3950000000         1.4208621597         3.1600794149         1.3378393285         0.9542539761         0.0056514226         7.0469079672
        0.4000000000         1.5410264856         3.1978628663         1.3327346748         0.9491502211        -0.1273232259         7.6428749577
        0.4050000000         1.6488452905         3.2317797757         1.4041998268         0.9619096084         1.7343218525         8.1776131028
        0.4100000000         1.7434548131         3.2615533178         1.4884266131         0.9670133634         3.9284035519         8.6468384909
        0.4150000000         1.8240971144         3.2869401921         1.4297230954         0.9823246281         2.3991950947         9.0467920487
        0.4200000000         1.8901261504         3.3077327275         1.4603510177         0.9925321379         3.1970429854         9.3742696553
        0.4250000000         1.9410129469         3.3237606869         1.5216068622         1.0052915252         4.7927387669         9.6266478116
        0.4300000000         1.9763498382         3.3348927512         1.4782173056         1.0231546675         3.6624542550         9.8019046576
        0.4350000000         1.9958537322         3.3410376668         1.5318161696         1.0461215646         5.0586880638         9.8986361701
        0.4400000000         1.9993683786         3.3421450452         1.5216068622         1.0665365843         4.7927387669         9.9160674103
        0.4450000000         1.9868656208         3.3382058047         1.5241591891         1.0818478490         4.8592260911         9.8540587327
        0.4500000000         1.9584456212         3.3292522498         1.5445778039         1.0946072363         5.3911246849         9.7131069031
        0.4550000000         1.9143360592         3.3153577883         1.5343684965         1.1201260109         5.1251753880         9.4943411194
        0.4600000000         1.8548903067         3.2966362876         1.5445778039         1.1328853982         5.3911246849         9.1995139650
        0.4650000000         1.7805845973         3.2732410788         1.5547871113         1.1584041728         5.6570739818         8.8309873686
        0.4700000000         1.6920142113         3.2453636181         1.5496824576         1.1762673150         5.5240993334         8.3917136825
        0.4750000000         1.5898887068         3.2132318211         1.5726533993         1.1992342121         6.1224852514         7.8852120301
        0.4800000000         1.4750262347         3.1771080867         1.5649964188         1.2247529867         5.9230232787         7.3155401137
        0.4850000000         1.3483469851         3.1372870329         1.5598917651         1.2528236388         5.7900486303         6.6872617072
        0.4900000000         1.2108658148         3.0940929662         1.5854150336         1.2757905359         6.4549218725         6.0054100949
        0.4950000000         1.0636841173         3.0478771124         1.5598917651         1.2962055556         5.7900486303         5.2754477482
        0.5000000000         0.9079809995         2.9990146351         1.5726533993         1.3217243302         6.1224852514         4.5032225650
        0.5050000000         0.7450038351         2.9479014722         1.5445778039         1.3319318400         5.3911246849         3.6949210205
        0.5100000000         0.5760582720         2.8949510208         1.5649964188         1.3600024920         5.9230232787         2.8570186060
        0.5150000000         0.4024977724         2.8405907010         1.5496824576         1.3753137568         5.5240993334         1.9962279522
        0.5200000000         0.2257127697         2.7852584301         1.5394731502         1.3957287765         5.2581500365         1.1194450528
        0.5250000000         0.0471195297         2.5000000000         1.5573394382         1.4212475511         5.7235613061         0.2336940193
        0.5300000000        -0.1318511959         2.2399344026         1.5267115159         1.4391106933         4.9257134153        -0.6539291912
        0.5350000000        -0.3097656309         2.1752785219         1.5190545354         1.4569738355         4.7262514427        -1.5363136232
        0.5400000000        -0.4851984616         2.1124482415         1.4858742862         1.4748369777         3.8619162277        -2.4063902901
        0.5450000000        -0.6567442547         2.0518599619         1.4577986908         1.4850444875         3.1305556612        -3.2571888058
        0.5500000000        -0.8230287172         1.9939000579         1.4399324028         1.5054595072         2.6651443916        -4.0818932259
        0.5550000000        -0.9827197056         1.9389251178         1.3990951731         1.5080113847         1.6013472040        -4.8738966518
        0.5600000000        -1.1345378983         1.8872623239         1.3608102703         1.5105632621         0.6040373406        -5.6268541602
        0.5650000000        -1.2772670445         1.8392099177         1.2944497720         1.5080113847        -1.1246330893        -6.3347336337
        0.5700000000        -1.4097637079         1.7950377062         1.2612695229         1.5054595072        -1.9889683042        -6.9918640856
        0.5750000000        -1.5309664270         1.7549875768         1.2791358108         1.5054595072        -1.5235570347        -7.5929810913
        0.5800000000        -1.6399042187         1.7192739977         1.2408509080         1.4952519974        -2.5208668981        -8.1332689628
        0.5850000000        -1.7357043569         1.6880844862         1.2229846200         1.4850444875        -2.9862781676        -8.6083993287
        0.5900000000        -1.8175993647         1.6615800351         1.2076706589         1.4722851002        -3.3852021130        -9.0145658092
        0.5950000000        -1.8849331620         1.6398954878         1.1821473903         1.4569738355        -4.0500753553        -9.3485145105
        0.6000000000        -1.9371663223         1.6231398583         1.1821473903         1.4416625707        -4.0500753553        -9.6075700919
        0.6050000000        -1.9738803934         1.6113965935         1.1617287755         1.4263513060        -4.5819739491        -9.7896571990
        0.6100000000        -1.9947812505         1.6047237748         1.1617287755         1.4110400412        -4.5819739491        -9.8933170898
        0.6150000000        -1.9997014519         1.6031542593         1.1311008532         1.3931768990        -5.3798218398        -9.9177193208
        0.6200000000        -1.9886015808         1.6066957602         1.1362055069         1.3676581244        -5.2468471913        -9.8626684001
        0.6250000000        -1.9615705608         1.6153308652         1.1336531800         1.3497949822        -5.3133345156        -9.7286053534
        0.6300000000        -1.9188249437         1.6290169943         1.1157868920         1.3319318400        -5.7787457852        -9.5166041908
        0.6350000000        -1.8607071746         1.6476862959         1.1157868920         1.3064130654        -5.7787457852        -9.2283633029
        0.6400000000        -1.7876828483         1.6712454826         1.1234438726         1.2911018006        -5.5792838125        -8.8661918544
        0.6450000000        -1.7003369798         1.6995756051         1.0877112966         1.2655830261        -6.5101063517        -8.4329912848
        0.6500000000        -1.5993693170         1.7325317685         1.1234438726         1.2400642515        -5.5792838125        -7.9322320645
        0.6550000000        -1.4855887353         1.7699427898         1.0851589698         1.2119935994        -6.5765936759        -7.3679258917
        0.6600000000        -1.3599067574         1.8116108026         1.1208915457         1.1966823347        -5.6457711367        -6.7445935542
        0.6650000000        -1.2233302509         1.8573108135         1.0953682772         1.1737154375        -6.3106443790        -6.0672287122
