% Motor Triangle Wave Linearization Verification - Cycle Average
% Period      = 40.0 [sec]
% Cycles used = 10
% Fs          = 200 [Hz]
% N per cycle = 8000

Time[s]              Vcmd_ref_avg[V]      Omega_target_avg[rad/s] Omega_avg[rad/s]    
0.0000000000         0.0000027489         0.0000136334         0.0189488874        
0.0050000000         0.0015720497         0.0077967375         0.0056514226        
0.0100000000         0.0031434261         0.0155901359         -0.0674846341       
0.0150000000         0.0047135376         0.0233772610         0.0654900144        
0.0200000000         0.0062844316         0.0311682670         0.0056514226        
0.0250000000         0.0078551710         0.0389585058         -0.0209435071       
0.0300000000         0.0094255882         0.0467471470         0.0189488874        
0.0350000000         0.0109967410         0.0545394364         0.0123001550        
0.0400000000         0.0125671016         0.0623277970         0.0189488874        
0.0450000000         0.0141378157         0.0701179110         -0.0475384368       
0.0500000000         0.0157086845         0.0779087918         -0.0608359017       
0.0550000000         0.0172809322         0.0857065112         0.0588412819        
0.0600000000         0.0188501785         0.0934893451         -0.0076460423       
0.0650000000         0.0204211472         0.1012807217         0.0388950847        
0.0700000000         0.0219951631         0.1090872109         0.0388950847        
0.0750000000         0.0235632564         0.1168643266         -0.0275922396       
0.0800000000         0.0251334997         0.1246521049         0.0521925495        
0.0850000000         0.0267038342         0.1324403360         0.0123001550        
0.0900000000         0.0282742653         0.1402290464         0.0388950847        
0.0950000000         0.0298449524         0.1480190257         -0.0009973098       
0.1000000000         0.0314155047         0.1558083373         -0.0874308314       
0.1050000000         0.0329866346         0.1636005128         -0.0541871692       
0.1100000000         0.0345579262         0.1713934908         -0.0940795638       
0.1150000000         0.0361276762         0.1791788230         -0.0342409720       
0.1200000000         0.0377272658         0.1871121473         0.0123001550        
0.1250000000         0.0392686162         0.1947566288         -0.0275922396       
0.1300000000         0.0409474686         0.2030830653         -0.0408897044       
0.1350000000         0.0424266588         0.2104192567         -0.0342409720       
0.1400000000         0.0439847198         0.2181466162         -0.0741333665       
0.1450000000         0.0455502762         0.2259111500         -0.0807820989       
0.1500000000         0.0471207734         0.2337001877         -0.0408897044       
0.1550000000         0.0486910154         0.2414879598         -0.0541871692       
0.1600000000         0.0502622668         0.2492807385         -0.0541871692       
0.1650000000         0.0518329031         0.2570704663         0.0123001550        
0.1700000000         0.0534015666         0.2648504097         0.0056514226        
0.1750000000         0.0549736360         0.2726472449         -0.0142947747       
0.1800000000         0.0565425907         0.2804286326         -0.0807820989       
0.1850000000         0.0581130304         0.2882173857         -0.0475384368       
0.1900000000         0.0596825927         0.2960017870         -0.0009973099       
0.1950000000         0.0612525390         0.3037880928         -0.1406206907       
0.2000000000         0.0628224131         0.3115740399         -0.0741333665       
0.2050000000         0.0643928198         0.3193626291         0.1585722683        
0.2100000000         0.0659676768         0.3271732899         0.9564201590        
0.2150000000         0.0675326559         0.3349349602         1.0295562156        
0.2200000000         0.0691024821         0.3427206703         0.6638759324        
0.2250000000         0.0706725985         0.3505078196         0.9497714266        
0.2300000000         0.0722422663         0.3582927440         0.9364739617        
0.2350000000         0.0738117357         0.3660766844         0.7370119891        
0.2400000000         0.0753815960         0.3738625633         0.9564201590        
0.2450000000         0.0769513877         0.3816481027         0.7902018484        
0.2500000000         0.0785208589         0.3894320520         0.8832841023        
0.2550000000         0.0800903413         0.3972160569         0.9298252293        
0.2600000000         0.0816595923         0.4049989139         0.8566891727        
0.2650000000         0.0832287772         0.4127814433         0.8367429754        
0.2700000000         0.0847982654         0.4205654773         0.7902018484        
0.2750000000         0.0863677798         0.4283496409         0.7104170594        
0.2800000000         0.0879370809         0.4361327465         0.8433917078        
0.2850000000         0.0895063811         0.4439158476         0.7237145242        
0.2900000000         0.0910754440         0.4516977721         0.7104170594        
0.2950000000         0.0926446328         0.4594803207         0.6904708621        
0.3000000000         0.0942137989         0.4672627571         0.6173348055        
0.3050000000         0.0957827030         0.4750438937         0.6971195945        
0.3100000000         0.0973518962         0.4828264646         0.6638759324        
0.3150000000         0.0989210389         0.4906087844         0.5907398758        
0.3200000000         0.1004895996         0.4983882182         0.6638759324        
0.3250000000         0.1020583243         0.5061684651         0.7170657918        
0.3300000000         0.1036271680         0.5139493023         0.5309012840        
0.3350000000         0.1051957627         0.5217289044         0.6705246648        
0.3400000000         0.1067642861         0.5295081535         0.6638759324        
0.3450000000         0.1083329414         0.5372880563         0.6239835379        
0.3500000000         0.1099010813         0.5450654028         0.6505784676        
0.3550000000         0.1114782875         0.5528877147         0.5973886082        
0.3600000000         0.1130380915         0.5606237185         0.5707936785        
0.3650000000         0.1146063294         0.5684015511         0.5641449461        
0.3700000000         0.1161743930         0.5761785197         0.5309012840        
0.3750000000         0.1177426360         0.5839563773         0.5043063543        
0.3800000000         0.1193123868         0.5917417135         0.5973886082        
0.3850000000         0.1208785517         0.5995092650         0.5441987488        
0.3900000000         0.1224525818         0.6073158246         0.4777114246        
0.3950000000         0.1240140375         0.6150600203         0.5907398758        
0.4000000000         0.1255829391         0.6228411448         0.5840911433        
0.4050000000         0.1271493710         0.6306100202         0.6306322703        
0.4100000000         0.1287178783         0.6383891892         0.5641449461        
0.4150000000         0.1302845663         0.6461593349         0.5375500164        
0.4200000000         0.1318519263         0.6539328137         0.4311702976        
0.4250000000         0.1334192928         0.6617063244         0.4843601570        
0.4300000000         0.1349867086         0.6694800799         0.5840911433        
0.4350000000         0.1365540349         0.6772533913         0.5176038191        
0.4400000000         0.1381207378         0.6850236112         0.5441987488        
0.4450000000         0.1396879072         0.6927961443         0.6040373406        
0.4500000000         0.1412548587         0.7005675973         0.6106860730        
0.4550000000         0.1428217263         0.7083386336         0.6572272000        
0.4600000000         0.1443883146         0.7161082850         0.6439297351        
0.4650000000         0.1459551742         0.7238792818         0.6040373406        
0.4700000000         0.1475215552         0.7316479052         0.5907398758        
0.4750000000         0.1490880426         0.7394170562         0.6106860730        
0.4800000000         0.1506543222         0.7471851763         0.7303632566        
0.4850000000         0.1522211165         0.7549558494         0.6705246648        
0.4900000000         0.1537868083         0.7627210543         0.6904708621        
0.4950000000         0.1553532791         0.7704901230         0.6306322703        
0.5000000000         0.1569193095         0.7782570076         0.6439297351        
0.5050000000         0.1584850929         0.7860226666         0.8034993133        
0.5100000000         0.1600518776         0.7937932922         0.7104170594        
0.5150000000         0.1616166095         0.8015537367         0.6705246648        
0.5200000000         0.1631820842         0.8093178648         0.6838221297        
0.5250000000         0.1647504294         0.8170962298         0.6638759324        
0.5300000000         0.1663128277         0.8248451000         0.7968505808        
0.5350000000         0.1678783449         0.8326094396         0.7769043836        
0.5400000000         0.1694435239         0.8403721011         0.7769043836        
0.5450000000         0.1710133373         0.8481577476         0.6838221297        
0.5500000000         0.1725735516         0.8558957866         0.7569581863        
0.5550000000         0.1741386238         0.8636579186         0.6904708621        
0.5600000000         0.1757032130         0.8714176553         0.7503094539        
0.5650000000         0.1772679880         0.8791783134         0.7436607215        
0.5700000000         0.1788322375         0.8869363651         0.7569581863        
0.5750000000         0.1803967928         0.8946959337         0.8500404402        
0.5800000000         0.1819611774         0.9024546556         0.8101480457        
0.5850000000         0.1835256281         0.9102137051         0.7436607215        
0.5900000000         0.1851647324         0.9183430067         0.8101480457        
0.5950000000         0.1866537102         0.9257277410         0.8167967781        
0.6000000000         0.1882213369         0.9335025424         0.7702556512        
0.6050000000         0.1897817571         0.9412416023         0.7835531160        
0.6100000000         0.1913447907         0.9489936239         0.8766353699        
0.6150000000         0.1929087039         0.9567500078         0.7769043836        
0.6200000000         0.1944727232         0.9645069178         0.8633379051        
0.6250000000         0.1960350842         0.9722556034         0.8500404403        
0.6300000000         0.1975983717         0.9800088841         0.8167967781        
0.6350000000         0.1991641193         0.9877743661         0.8633379051        
0.6400000000         0.2007242611         0.9955120456         0.7902018484        
0.6450000000         0.2022870613         1.0032629092         0.9830150887        
0.6500000000         0.2038554902         1.0110416892         0.8832841023        
0.6550000000         0.2054199768         1.0188009171         0.9763663562        
0.6600000000         0.2069748185         1.0265123101         0.9763663563        
0.6650000000         0.2085372481         1.0342613358         0.9165277644        
0.6700000000         0.2100996647         1.0420102968         0.8766353699        
0.6750000000         0.2116614767         1.0497562597         0.9564201590        
0.6800000000         0.2132237111         1.0575043175         0.8965815672        
0.6850000000         0.2147850018         1.0652476950         0.8433917078        
0.6900000000         0.2163466786         1.0729929871         0.9497714266        
0.6950000000         0.2179080158         1.0807365951         0.8500404402        
0.7000000000         0.2194696152         1.0884815034         0.8832841023        
0.7050000000         0.2210305078         1.0962229063         0.8433917078        
0.7100000000         0.2225932684         1.1039735741         0.9231764969        
0.7150000000         0.2241527791         1.1117081230         0.9830150887        
0.7200000000         0.2257135876         1.1194491090         0.9431226942        
0.7250000000         0.2272741757         1.1271890019         0.8566891727        
0.7300000000         0.2288348359         1.1349292523         0.9630688914        
0.7350000000         0.2303952052         1.1426680595         0.9963125535        
0.7400000000         0.2319553044         1.1504055274         0.9763663563        
0.7450000000         0.2335169765         1.1581507967         0.9763663563        
0.7500000000         0.2350758837         1.1658823530         0.9963125535        
0.7550000000         0.2367944799         1.1744059025         1.0162587508        
0.7600000000         0.2382460082         1.1816049024         0.9896638211        
0.7650000000         0.2397546270         1.1890870483         0.9098790320        
0.7700000000         0.2413139906         1.1968208679         1.1159897371        
0.7750000000         0.2428731056         1.2045534543         0.9564201590        
0.7800000000         0.2444322952         1.2122864113         1.0694486102        
0.7850000000         0.2459913278         1.2200185894         0.9630688914        
0.7900000000         0.2475504425         1.2277511745         1.0694486102        
0.7950000000         0.2491088059         1.2354800337         0.9963125535        
0.8000000000         0.2506675424         1.2432107435         0.9697176238        
0.8050000000         0.2522256506         1.2509383367         1.2556131180        
0.8100000000         0.2537837933         1.2586661013         1.1093410047        
0.8150000000         0.2553417857         1.2663931204         1.0495024129        
0.8200000000         0.2568994835         1.2741186784         1.2090719911        
0.8250000000         0.2584572939         1.2818447949         1.1558821317        
0.8300000000         0.2600149511         1.2895701515         1.1292872020        
0.8350000000         0.2615725444         1.2972951913         1.0960435398        
0.8400000000         0.2631293660         1.3050164034         1.1226384696        
0.8450000000         0.2646865920         1.3127396217         1.1425846668        
0.8500000000         0.2662432531         1.3204600379         1.1691795965        
0.8550000000         0.2678002232         1.3281819869         1.1292872020        
0.8600000000         0.2693571619         1.3359037803         1.1159897371        
0.8650000000         0.2709131096         1.3436206582         1.1691795965        
0.8700000000         0.2724696060         1.3513402581         1.1625308641        
0.8750000000         0.2740258006         1.3590583605         1.2024232586        
0.8800000000         0.2755814900         1.3667739576         1.2556131180        
0.8850000000         0.2771369348         1.3744883416         1.2356669207        
0.8900000000         0.2786930672         1.3822061364         1.3154517098        
0.8950000000         0.2802477866         1.3899169225         1.2356669208        
0.9000000000         0.2818031233         1.3976307701         1.2822080477        
0.9050000000         0.2833580341         1.4053425060         1.2955055125        
0.9100000000         0.2849132460         1.4130557348         1.2423156532        
0.9150000000         0.2864677037         1.4207652234         1.2489643856        
0.9200000000         0.2880888949         1.4288056832         1.3021542450        
0.9250000000         0.2895769151         1.4361856682         1.2090719910        
0.9300000000         0.2911308088         1.4438923595         1.3154517098        
0.9350000000         0.2927351042         1.4518490227         1.2290181883        
0.9400000000         0.2942384731         1.4593051313         1.3353979071        
0.9450000000         0.2957922168         1.4670110786         1.2822080477        
0.9500000000         0.2973456351         1.4747154121         1.3021542450        
0.9550000000         0.2988988793         1.4824188821         1.4085339637        
0.9600000000         0.3004517932         1.4901207136         1.4085339638        
0.9650000000         0.3020145528         1.4978713758         1.3819390341        
0.9700000000         0.3035574554         1.5055235555         1.2888567801        
0.9750000000         0.3051100433         1.5132237705         1.4484263583        
0.9800000000         0.3066623094         1.5209223899         1.5149136825        
0.9850000000         0.3082145603         1.5286209333         1.4417776259        
0.9900000000         0.3098299873         1.5366328052         1.4018852313        
0.9950000000         0.3113243527         1.5440442598         1.4883187528        
1.0000000000         0.3128731283         1.5517255672         1.4750212880        
1.0050000000         0.3144209453         1.5594021202         1.5681035419        
1.0100000000         0.3159720125         1.5670947934         1.4750212880        
1.0150000000         0.3175231672         1.5747878999         1.5282111474        
1.0200000000         0.3190741135         1.5824799733         1.4683725555        
1.0250000000         0.3206244350         1.5901689479         1.5082649501        
1.0300000000         0.3221875626         1.5979214353         1.5548060771        
1.0350000000         0.3237263751         1.6055533298         1.5415086122        
1.0400000000         0.3252751394         1.6132345815         1.5016162177        
1.0450000000         0.3268247789         1.6209201736         1.6146446689        
1.0500000000         0.3283745918         1.6286066257         1.5747522743        
1.0550000000         0.3299235607         1.6362888918         1.5348598798        
1.0600000000         0.3314733486         1.6439752197         1.5415086122        
1.0650000000         0.3330219189         1.6516555089         1.5747522743        
1.0700000000         0.3345704542         1.6593356246         1.6146446688        
1.0750000000         0.3361192508         1.6670170363         1.6811319931        
1.0800000000         0.3376720389         1.6747182441         1.5282111474        
1.0850000000         0.3392158215         1.6823747885         1.6345908661        
1.0900000000         0.3407639467         1.6900528701         1.7276731201        
1.0950000000         0.3423113200         1.6977272226         1.6212934013        
1.1000000000         0.3438589526         1.7054028613         1.6013472040        
1.1050000000         0.3454061100         1.7130761434         1.6345908661        
1.1100000000         0.3469536547         1.7207513459         1.6611857958        
1.1150000000         0.3485004655         1.7284229087         1.6944294579        
1.1200000000         0.3500470088         1.7360931447         1.6877807255        
1.1250000000         0.3515932124         1.7437616963         1.6412395985        
1.1300000000         0.3531394652         1.7514304916         1.6279421337        
1.1350000000         0.3546854105         1.7590977618         1.6279421337        
1.1400000000         0.3562340645         1.7667784662         1.7276731200        
1.1450000000         0.3578469320         1.7747776442         1.7210243876        
1.1500000000         0.3593221307         1.7820940396         1.6744832607        
1.1550000000         0.3608674084         1.7897579987         1.6877807255        
1.1600000000         0.3624124016         1.7974205470         1.7077269228        
1.1650000000         0.3639642392         1.8051170406         1.6877807255        
1.1700000000         0.3655013951         1.8127407193         1.6877807255        
